Dodecane_KIT_Temp_75
Wavelength (nm),Abs
2655,0.08246655762
2654,0.08160215616
2653,0.07878919691
2652,0.08117779344
2651,0.08262245357
2650,0.08234604448
2649,0.08255314082
2648,0.0822654143
2647,0.08264052123
2646,0.08160025626
2645,0.08341598511
2644,0.0830398351
2643,0.0817867443
2642,0.08100488782
2641,0.082311064
2640,0.08252427727
2639,0.08253320307
2638,0.08185437322
2637,0.08316273987
2636,0.08159974962
2635,0.08228274435
2634,0.08204451203
2633,0.0814461261
2632,0.07854530215
2631,0.07588572055
2630,0.08188919723
2629,0.08156361431
2628,0.08171249926
2627,0.08254928887
2626,0.08387281746
2625,0.08276049048
2624,0.08206223696
2623,0.08300739527
2622,0.08051681519
2621,0.07882178575
2620,0.08348519355
2619,0.08314737678
2618,0.07757110149
2617,0.08292752504
2616,0.08324415982
2615,0.08193439245
2614,0.0826901868
2613,0.08398709446
2612,0.08228962868
2611,0.08295080811
2610,0.08436215669
2609,0.08399545401
2608,0.08195649832
2607,0.08085621148
2606,0.07788109779
2605,0.08279751986
2604,0.08139198273
2603,0.08040631562
2602,0.08193986863
2601,0.08322026581
2600,0.08326391131
2599,0.08211180568
2598,0.08339108527
2597,0.07964378595
2596,0.08300965279
2595,0.08723288774
2594,0.08677233011
2593,0.08572202921
2592,0.08427948505
2591,0.08233684301
2590,0.08192685992
2589,0.08249788731
2588,0.08486223966
2587,0.08341018856
2586,0.08122769743
2585,0.08090990782
2584,0.08390173316
2583,0.08265595883
2582,0.08256340772
2581,0.08398916572
2580,0.08406697959
2579,0.083070077
2578,0.08377705514
2577,0.08268304914
2576,0.08225687593
2575,0.08182621747
2574,0.08219919354
2573,0.08285393566
2572,0.0827177763
2571,0.08190057427
2570,0.08053046465
2569,0.08315251768
2568,0.08305253088
2567,0.08309663087
2566,0.08268094808
2565,0.08132967353
2564,0.08186934888
2563,0.08222584426
2562,0.0809725374
2561,0.08319418132
2560,0.08358185738
2559,0.08314213902
2558,0.08355211467
2557,0.08326441795
2556,0.08365736902
2555,0.08311624825
2554,0.08216888458
2553,0.08348509669
2552,0.08358304948
2551,0.08467775583
2550,0.08386182785
2549,0.08279103041
2548,0.08362868428
2547,0.08445490152
2546,0.0834492743
2545,0.08338747919
2544,0.08357749879
2543,0.08383717388
2542,0.08373840898
2541,0.08296274394
2540,0.08375338465
2539,0.08374459296
2538,0.08385875076
2537,0.08356130868
2536,0.08410404623
2535,0.08365984261
2534,0.083413288
2533,0.08391476423
2532,0.08403992653
2531,0.08400955051
2530,0.08398894966
2529,0.08401052654
2528,0.08386414498
2527,0.08377670497
2526,0.08378559351
2525,0.08383033425
2524,0.08336474001
2523,0.08372355998
2522,0.08388898522
2521,0.08436133713
2520,0.08396846801
2519,0.08391100168
2518,0.08389420062
2517,0.08393574506
2516,0.08394152671
2515,0.08442578465
2514,0.08426140994
2513,0.08415924758
2512,0.08408670127
2511,0.08424431831
2510,0.08453851193
2509,0.08422288299
2508,0.0843931213
2507,0.08410499245
2506,0.08418445289
2505,0.08429931849
2504,0.08412028849
2503,0.08447200805
2502,0.08458741754
2501,0.08438551426
2500,0.08473564684
2499,0.08449298143
2498,0.08456184715
2497,0.08471815288
2496,0.0847074911
2495,0.08476062864
2494,0.08457574993
2493,0.08495298773
2492,0.08477777988
2491,0.08497542888
2490,0.08483310044
2489,0.08483885974
2488,0.085138686
2487,0.08496192843
2486,0.08502325416
2485,0.08513512462
2484,0.08490397781
2483,0.08520539105
2482,0.08506990969
2481,0.0851701498
2480,0.08524274826
2479,0.0850848034
2478,0.08534333855
2477,0.08545589447
2476,0.08528807759
2475,0.0851822719
2474,0.08539825678
2473,0.08556391299
2472,0.08579853922
2471,0.08556539565
2470,0.08554632217
2469,0.08546891063
2468,0.08555335552
2467,0.08585367352
2466,0.0857430622
2465,0.08551133424
2464,0.08589285612
2463,0.08577917516
2462,0.08581090719
2461,0.08594977111
2460,0.08595968038
2459,0.08584885299
2458,0.0860048607
2457,0.08612787724
2456,0.08590739965
2455,0.0863596499
2454,0.08633246273
2453,0.0862512216
2452,0.08630928397
2451,0.08653073013
2450,0.08617708832
2449,0.086371243
2448,0.0864135325
2447,0.0862595886
2446,0.08661983162
2445,0.0866606608
2444,0.08669194579
2443,0.08661250025
2442,0.0869480893
2441,0.086670205
2440,0.08679866046
2439,0.0868242681
2438,0.08701532334
2437,0.08693680167
2436,0.08683808148
2435,0.08700399846
2434,0.08714843541
2433,0.08720956743
2432,0.08722475916
2431,0.08727826923
2430,0.08729580045
2429,0.08729019761
2428,0.08754339814
2427,0.08756876737
2426,0.08752509952
2425,0.0877436772
2424,0.08756727725
2423,0.0875198096
2422,0.08788785338
2421,0.08772733063
2420,0.08780124784
2419,0.08787802607
2418,0.08783632517
2417,0.08787235618
2416,0.08815224469
2415,0.08803616464
2414,0.08813595027
2413,0.08823549747
2412,0.08809742332
2411,0.08807227761
2410,0.08849670738
2409,0.08837539703
2408,0.08829881251
2407,0.08875286579
2406,0.08857900649
2405,0.08857243508
2404,0.08887447417
2403,0.08881698549
2402,0.08860526234
2401,0.08887199312
2400,0.08881495148
2399,0.08877779543
2398,0.08906742185
2397,0.0891379714
2396,0.08909223974
2395,0.08920069039
2394,0.089448452
2393,0.08930169046
2392,0.08946664631
2391,0.08958673477
2390,0.08963866532
2389,0.08963694423
2388,0.08974622935
2387,0.08986438811
2386,0.08972993493
2385,0.08993411809
2384,0.09011122584
2383,0.090015769
2382,0.08997255564
2381,0.09016098827
2380,0.09033308923
2379,0.09032066166
2378,0.0904923752
2377,0.09049496055
2376,0.09040728956
2375,0.09070317447
2374,0.09083260596
2373,0.09069319069
2372,0.09079125524
2371,0.09090016037
2370,0.09104334563
2369,0.09094917774
2368,0.09139227867
2367,0.09127102047
2366,0.09116425365
2365,0.09138486534
2364,0.09161648899
2363,0.09139844775
2362,0.09176585823
2361,0.0918187201
2360,0.09190542251
2359,0.09177672863
2358,0.09206071496
2357,0.09224074334
2356,0.09206801653
2355,0.0921844393
2354,0.09237915277
2353,0.09242767096
2352,0.09237828851
2351,0.09253176302
2350,0.09282768518
2349,0.09269621968
2348,0.09283781797
2347,0.09315659851
2346,0.0930326581
2345,0.09296359122
2344,0.09332115948
2343,0.09356120229
2342,0.09342158586
2341,0.0933848992
2340,0.09359578788
2339,0.09379730374
2338,0.09371872991
2337,0.09378310293
2336,0.09414176643
2335,0.09409785271
2334,0.09405493736
2333,0.09437329322
2332,0.09448161721
2331,0.0942274332
2330,0.09463284165
2329,0.09490288794
2328,0.09469117224
2327,0.09465418756
2326,0.09510417283
2325,0.09517771751
2324,0.09506441653
2323,0.09526006877
2322,0.09538973123
2321,0.09554040432
2320,0.09560550004
2319,0.09564102441
2318,0.09593448788
2317,0.09596303105
2316,0.09588690847
2315,0.09622766823
2314,0.0964866206
2313,0.09631927311
2312,0.09640979022
2311,0.09663143009
2310,0.09689874947
2309,0.09681970626
2308,0.09677483886
2307,0.09719775617
2306,0.09743788093
2305,0.09712348878
2304,0.09727469832
2303,0.09781543911
2302,0.09786693007
2301,0.09769263119
2300,0.09780301899
2299,0.09795569628
2298,0.09817514569
2297,0.09794139117
2296,0.09833490849
2295,0.09847247601
2294,0.09866450727
2293,0.09845536202
2292,0.09878072888
2291,0.09904595464
2290,0.09914845973
2289,0.0993566364
2288,0.09923765063
2287,0.09961208701
2286,0.09948610514
2285,0.09950211644
2284,0.09977260232
2283,0.1001961082
2282,0.1002455056
2281,0.1002083644
2280,0.1000279412
2279,0.1003226936
2278,0.1008271798
2277,0.1005449742
2276,0.100687094
2275,0.1009770408
2274,0.1011151895
2273,0.1014479846
2272,0.1014184579
2271,0.1013650745
2270,0.1017312333
2269,0.1019804925
2268,0.1020898148
2267,0.1023079902
2266,0.102444239
2265,0.102705054
2264,0.1026805267
2263,0.1024738327
2262,0.103134416
2261,0.1032730192
2260,0.1032351032
2259,0.1034095064
2258,0.1037639901
2257,0.1039949059
2256,0.1038578153
2255,0.1038169116
2254,0.1043373272
2253,0.1043676138
2252,0.1045700014
2251,0.1046936214
2250,0.10478165
2249,0.1051016077
2248,0.1053731963
2247,0.105514504
2246,0.1054747626
2245,0.1055489257
2244,0.1060746238
2243,0.106151171
2242,0.1060074791
2241,0.1061188132
2240,0.1066304147
2239,0.1069319993
2238,0.1067630202
2237,0.107003592
2236,0.1071787551
2235,0.1075698882
2234,0.1077311859
2233,0.1078093499
2232,0.1077879146
2231,0.1081725881
2230,0.1086022407
2229,0.1084819585
2228,0.1084760427
2227,0.1088388413
2226,0.109004803
2225,0.1094249561
2224,0.109404102
2223,0.1094300449
2222,0.1096427441
2221,0.1101871356
2220,0.1105356067
2219,0.1104403958
2218,0.1105519682
2217,0.110685721
2216,0.1109138727
2215,0.111334838
2214,0.111495927
2213,0.1115578413
2212,0.1115898341
2211,0.1122222096
2210,0.112373136
2209,0.112611331
2208,0.1125625893
2207,0.1126257256
2206,0.1130769029
2205,0.1134307608
2204,0.1136204749
2203,0.1136805341
2202,0.113820903
2201,0.1140789166
2200,0.1143543273
2199,0.1144474074
2198,0.114858292
2197,0.1148860753
2196,0.1149779856
2195,0.1152837053
2194,0.1156482846
2193,0.1159635037
2192,0.115922533
2191,0.1160281897
2190,0.1164706275
2189,0.1167023778
2188,0.1168300733
2187,0.1172073856
2186,0.1171797514
2185,0.1174839064
2184,0.1176384017
2183,0.1177608743
2182,0.1181225777
2181,0.1182147339
2180,0.118374899
2179,0.1187176853
2178,0.1188235804
2177,0.1192554608
2176,0.1195056736
2175,0.1197950542
2174,0.1196765453
2173,0.120148018
2172,0.1202937365
2171,0.1206633002
2170,0.1210045144
2169,0.1212899312
2168,0.1212800369
2167,0.1213199794
2166,0.1217604503
2165,0.1221154928
2164,0.1223306507
2163,0.122382015
2162,0.1226879805
2161,0.1228611395
2160,0.1231604964
2159,0.1234997958
2158,0.1238827333
2157,0.1242299005
2156,0.1241811439
2155,0.124411568
2154,0.1246460155
2153,0.1250694245
2152,0.125227958
2151,0.1254475713
2150,0.1258502603
2149,0.1260702461
2148,0.1263494939
2147,0.1262843758
2146,0.126874581
2145,0.126973778
2144,0.127252087
2143,0.1275212914
2142,0.1276947856
2141,0.1279481202
2140,0.1283269376
2139,0.1285768002
2138,0.1289702654
2137,0.1291721165
2136,0.129351303
2135,0.1296088099
2134,0.1298699528
2133,0.1301140636
2132,0.1303922534
2131,0.1307333708
2130,0.1308438778
2129,0.1312857717
2128,0.1315829009
2127,0.131691888
2126,0.1319361478
2125,0.1324041635
2124,0.1327027529
2123,0.1331384033
2122,0.1333677173
2121,0.1333777457
2120,0.1338440329
2119,0.1342153102
2118,0.1342645288
2117,0.1347767264
2116,0.1350178868
2115,0.1352761239
2114,0.1356727779
2113,0.1360448003
2112,0.1362637579
2111,0.1365910769
2110,0.1366698295
2109,0.1371406317
2108,0.1374668777
2107,0.1378027499
2106,0.1381181329
2105,0.1385735571
2104,0.1388721168
2103,0.1389097571
2102,0.1392137557
2101,0.1397431493
2100,0.1398304254
2099,0.140339613
2098,0.1405813098
2097,0.1410185993
2096,0.1414087415
2095,0.141896978
2094,0.1420513391
2093,0.1423949748
2092,0.1425976008
2091,0.1429622918
2090,0.1431611031
2089,0.143635124
2088,0.1439254284
2087,0.1444012076
2086,0.1450105458
2085,0.145099625
2084,0.14539814
2083,0.1458028108
2082,0.1461575627
2081,0.1463856548
2080,0.146856457
2079,0.1470742077
2078,0.1475754082
2077,0.1479595155
2076,0.1483283043
2075,0.1487128288
2074,0.1490593702
2073,0.1492303163
2072,0.1498398483
2071,0.1501294374
2070,0.1503425837
2069,0.1510466337
2068,0.1511836201
2067,0.1515923291
2066,0.1519669741
2065,0.1523080468
2064,0.152665928
2063,0.1530404389
2062,0.1535474658
2061,0.1539378613
2060,0.1543217301
2059,0.1546645463
2058,0.1550213993
2057,0.1554875374
2056,0.1556956172
2055,0.1562104821
2054,0.1565284729
2053,0.1570107639
2052,0.1573531032
2051,0.1577166617
2050,0.1581866741
2049,0.1585051566
2048,0.15896523
2047,0.1592623889
2046,0.1597547084
2045,0.1601752043
2044,0.1604688019
2043,0.1609902233
2042,0.1614851505
2041,0.1618917733
2040,0.1621317118
2039,0.1624184698
2038,0.1629053503
2037,0.1633091569
2036,0.163696453
2035,0.164097026
2034,0.1645151973
2033,0.1649636775
2032,0.1653448492
2031,0.1658277512
2030,0.1660298407
2029,0.1666467339
2028,0.1669714302
2027,0.1673929542
2026,0.1678709388
2025,0.1681154519
2024,0.1687047333
2023,0.1689172685
2022,0.1693640053
2021,0.169874087
2020,0.170190841
2019,0.1707101762
2018,0.1710337847
2017,0.1714295447
2016,0.1718261987
2015,0.1721792668
2014,0.1726767272
2013,0.1730790734
2012,0.1733386666
2011,0.1738609076
2010,0.1742205024
2009,0.1744832546
2008,0.1751614362
2007,0.1754098684
2006,0.175739944
2005,0.1762247235
2004,0.1766562611
2003,0.1769844592
2002,0.1773514003
2001,0.1777273566
2000,0.1782088876
1999,0.1787596345
1998,0.179163754
1997,0.179428488
1996,0.1797450334
1995,0.1801984459
1994,0.1806002408
1993,0.1811272502
1992,0.1815513074
1991,0.1818066537
1990,0.1820763499
1989,0.1825258881
1988,0.182927683
1987,0.1832701266
1986,0.1835754216
1985,0.1839015335
1984,0.1843773425
1983,0.1847708672
1982,0.1851925999
1981,0.1854786128
1980,0.1858082265
1979,0.186376527
1978,0.1866366416
1977,0.1869716197
1976,0.1873489022
1975,0.187699914
1974,0.1881144345
1973,0.188408941
1972,0.1886944771
1971,0.1892154366
1970,0.1895334274
1969,0.1898316294
1968,0.1901299357
1967,0.1903976053
1966,0.1908884495
1965,0.1911498755
1964,0.1915380508
1963,0.1919142455
1962,0.1922930628
1961,0.1925681978
1960,0.1929656267
1959,0.1932836324
1958,0.1936353147
1957,0.1939402223
1956,0.1942915767
1955,0.1947259754
1954,0.1950623542
1953,0.1953310519
1952,0.1957987845
1951,0.1961579621
1950,0.1963942498
1949,0.1967941821
1948,0.1971455663
1947,0.1975078583
1946,0.1977516562
1945,0.1983645111
1944,0.1984295398
1943,0.1988538653
1942,0.1991427243
1941,0.1995795518
1940,0.1998677403
1939,0.2004035115
1938,0.2005754709
1937,0.200990051
1936,0.2013270855
1935,0.2017112821
1934,0.2020583898
1933,0.2024259567
1932,0.2026658505
1931,0.2030767202
1930,0.2033830434
1929,0.2039097548
1928,0.2042608261
1927,0.2044631839
1926,0.2048300803
1925,0.2050802261
1924,0.2056587934
1923,0.2059083879
1922,0.2059890777
1921,0.2066941112
1920,0.2075533718
1919,0.20760037
1918,0.207686305
1917,0.2079379708
1916,0.2084693313
1915,0.2086395025
1914,0.2091507167
1913,0.2095678598
1912,0.2098814845
1911,0.2103483677
1910,0.2107193023
1909,0.210901767
1908,0.2111876011
1907,0.2113828808
1906,0.2122651041
1905,0.2125773877
1904,0.2128144056
1903,0.2132423669
1902,0.2134312689
1901,0.2134368569
1900,0.2143048495
1899,0.2146962583
1898,0.2149731666
1897,0.2154111266
1896,0.2156912684
1895,0.2159192711
1894,0.2162249833
1893,0.2167090178
1892,0.216874823
1891,0.2173934281
1890,0.2179892957
1889,0.2181751281
1888,0.2183082849
1887,0.2186549157
1886,0.2189987004
1885,0.2190939039
1884,0.2197507471
1883,0.2199944258
1882,0.2200734019
1881,0.2205113173
1880,0.2208274007
1879,0.220929414
1878,0.2210306376
1877,0.2215633541
1876,0.2219983339
1875,0.2219471037
1874,0.2222672552
1873,0.2229867429
1872,0.2229658961
1871,0.2232451886
1870,0.2237557024
1869,0.2235937566
1868,0.2244580537
1867,0.224715516
1866,0.2244335711
1865,0.2246406078
1864,0.2251022905
1863,0.2253253311
1862,0.2252745777
1861,0.2254888862
1860,0.2261905223
1859,0.2262460291
1858,0.2259729952
1857,0.2263546139
1856,0.2265744656
1855,0.226428777
1854,0.2269254029
1853,0.2273252904
1852,0.2272100151
1851,0.2271883935
1850,0.2272495031
1849,0.2272732258
1848,0.2277568728
1847,0.2281274945
1846,0.228141427
1845,0.2278055102
1844,0.2279120684
1843,0.2277955711
1842,0.2282988578
1841,0.2283840775
1840,0.2285148352
1839,0.2284716368
1838,0.2282274067
1837,0.2285256535
1836,0.2288077623
1835,0.2287015915
1834,0.2286101282
1833,0.2284561694
1832,0.2284147888
1831,0.2285855114
1830,0.2285864651
1829,0.2285655737
1828,0.2283311784
1827,0.2281608135
1826,0.2283743173
1825,0.2282394767
1824,0.2280697227
1823,0.2279711813
1822,0.2277399451
1821,0.227986753
1820,0.2278139889
1819,0.2277179062
1818,0.2274177074
1817,0.2273764163
1816,0.2272166908
1815,0.227164194
1814,0.2269244939
1813,0.226726979
1812,0.2266662419
1811,0.2263820767
1810,0.2263285816
1809,0.226188466
1808,0.2258810103
1807,0.2258200049
1806,0.2256411016
1805,0.2253531665
1804,0.2251435369
1803,0.2248663157
1802,0.2247171998
1801,0.2244877815
1800,0.2242323309
1799,0.2240569741
1798,0.2237131149
1797,0.2234900594
1796,0.2232378721
1795,0.2229316831
1794,0.2228313088
1793,0.2223998904
1792,0.2222694904
1791,0.2219666541
1790,0.2216977626
1789,0.2213996202
1788,0.2212290764
1787,0.2208310962
1786,0.2205399722
1785,0.2202845514
1784,0.220015049
1783,0.2195250541
1782,0.2193518877
1781,0.2190376222
1780,0.2186718732
1779,0.2184333056
1778,0.2180934697
1777,0.2178130299
1776,0.217487812
1775,0.2172005028
1774,0.2169030905
1773,0.2165738791
1772,0.2162629813
1771,0.215931952
1770,0.2155180871
1769,0.2152465284
1768,0.2149091363
1767,0.2146704495
1766,0.2142956555
1765,0.213956207
1764,0.2136259526
1763,0.2132692635
1762,0.2130241692
1761,0.2126553506
1760,0.2123346627
1759,0.212021336
1758,0.2117011547
1757,0.2113094032
1756,0.2109749764
1755,0.2106888592
1754,0.2103061378
1753,0.2100811005
1752,0.2097307444
1751,0.2093277723
1750,0.2090495825
1749,0.2086212933
1748,0.2082844973
1747,0.2080508024
1746,0.2077216357
1745,0.2073889524
1744,0.2071042359
1743,0.2066395879
1742,0.2063410431
1741,0.2059577554
1740,0.205616951
1739,0.2053379565
1738,0.2049988061
1737,0.2046366781
1736,0.2043431103
1735,0.2039646059
1734,0.2035784125
1733,0.2031585872
1732,0.2029491216
1731,0.2025702894
1730,0.2021102905
1729,0.2018362284
1728,0.2014296055
1727,0.2011268884
1726,0.2008222789
1725,0.2003355026
1724,0.1999964118
1723,0.1995929927
1722,0.1992543191
1721,0.1989136487
1720,0.1986013055
1719,0.1981619596
1718,0.1976604462
1717,0.1974134743
1716,0.1970433295
1715,0.1965744793
1714,0.1962700486
1713,0.1959112287
1712,0.1955664009
1711,0.1950729042
1710,0.1946922094
1709,0.194305703
1708,0.1938955188
1707,0.1935106516
1706,0.1931041926
1705,0.1926999688
1704,0.1922720224
1703,0.1918331087
1702,0.1914880425
1701,0.1910591871
1700,0.190617159
1699,0.1902687997
1698,0.1897802502
1697,0.1894608736
1696,0.1890186518
1695,0.1885430515
1694,0.188195318
1693,0.1877597421
1692,0.1872579753
1691,0.186955303
1690,0.186618343
1689,0.1861056983
1688,0.1856130213
1687,0.1852616817
1686,0.184916079
1685,0.1843796372
1684,0.1840442717
1683,0.183583796
1682,0.1832274199
1681,0.1828414351
1680,0.1823526025
1679,0.1818648726
1678,0.1815234721
1677,0.1810831726
1676,0.1806382686
1675,0.1802689582
1674,0.1798890084
1673,0.1795098037
1672,0.1790531725
1671,0.1786680669
1670,0.178282842
1669,0.1778493673
1668,0.1774318665
1667,0.1771514416
1666,0.1766812205
1665,0.1763302684
1664,0.1758800745
1663,0.175425142
1662,0.1750445515
1661,0.1746526062
1660,0.1742904931
1659,0.173867926
1658,0.1734476835
1657,0.1730442196
1656,0.1726581603
1655,0.1722679436
1654,0.171825856
1653,0.171405077
1652,0.1709652543
1651,0.17065458
1650,0.1702645868
1649,0.1698314995
1648,0.1694233119
1647,0.169022575
1646,0.1686377376
1645,0.1682626754
1644,0.1678713858
1643,0.167419821
1642,0.1669832915
1641,0.16667898
1640,0.1662682146
1639,0.1659044772
1638,0.1655400544
1637,0.1651015431
1636,0.1647754312
1635,0.1643766612
1634,0.1639979184
1633,0.1636491716
1632,0.1631692201
1631,0.1628068984
1630,0.1625234634
1629,0.1620854288
1628,0.1617735624
1627,0.1613228768
1626,0.1610212028
1625,0.1606405079
1624,0.1602718681
1623,0.1598498225
1622,0.1595644504
1621,0.1592326462
1620,0.1588918865
1619,0.158491239
1618,0.1581614166
1617,0.1577883512
1616,0.1574205607
1615,0.1571482271
1614,0.1567779779
1613,0.156402126
1612,0.1561011076
1611,0.1558052897
1610,0.1555485278
1609,0.1551596075
1608,0.1548621356
1607,0.154560104
1606,0.1542084813
1605,0.1539065391
1604,0.1536683291
1603,0.1533548236
1602,0.1530371606
1601,0.1527016908
1600,0.1523959041
1599,0.1522490829
1598,0.1519450396
1597,0.151646018
1596,0.1514046192
1595,0.1510793269
1594,0.1507900953
1593,0.1505724043
1592,0.1503281295
1591,0.1500480622
1590,0.149835825
1589,0.1496155858
1588,0.1492986381
1587,0.1490772516
1586,0.1488995552
1585,0.1486731619
1584,0.1484027952
1583,0.1481550336
1582,0.1480385065
1581,0.1478097141
1580,0.1475716978
1579,0.1473751813
1578,0.1471428126
1577,0.1469034702
1576,0.1467414945
1575,0.1465860158
1574,0.1463818848
1573,0.1461393684
1572,0.1459519267
1571,0.1457497627
1570,0.1455769837
1569,0.1454605162
1568,0.1452869773
1567,0.1450577229
1566,0.1448819488
1565,0.1446670592
1564,0.1445031464
1563,0.1443966925
1562,0.144219175
1561,0.1440738291
1560,0.1438880265
1559,0.143798992
1558,0.1435740739
1557,0.1434652954
1556,0.1432735324
1555,0.1431539059
1554,0.1429923028
1553,0.1428749114
1552,0.1426924318
1551,0.1425464153
1550,0.1424195617
1549,0.1423130631
1548,0.1421641558
1547,0.1420718282
1546,0.1419228315
1545,0.14184919
1544,0.1416371912
1543,0.1415525824
1542,0.1414507478
1541,0.1412440091
1540,0.1411450058
1539,0.1411311775
1538,0.1409554482
1537,0.1408414841
1536,0.1407693774
1535,0.1406490207
1534,0.1405744404
1533,0.1404858977
1532,0.1403351128
1531,0.1402182877
1530,0.140159592
1529,0.1401206404
1528,0.1399653554
1527,0.1399065554
1526,0.1397272199
1525,0.1396501958
1524,0.1395900398
1523,0.1395807564
1522,0.1393756121
1521,0.1393393278
1520,0.1392281651
1519,0.1391721666
1518,0.1391669959
1517,0.1390639096
1516,0.1389397681
1515,0.1388372034
1514,0.1387913674
1513,0.1387472898
1512,0.1386034489
1511,0.1385724247
1510,0.1384639889
1509,0.1384468675
1508,0.1383819282
1507,0.1383093446
1506,0.1382434219
1505,0.1381564289
1504,0.1381158233
1503,0.1380868703
1502,0.138000533
1501,0.1378983855
1500,0.137860164
1499,0.137833789
1498,0.1377504468
1497,0.1377237886
1496,0.137641862
1495,0.1375360042
1494,0.1376237124
1493,0.1374986619
1492,0.1374484003
1491,0.1373269558
1490,0.1373365819
1489,0.1372595578
1488,0.1372957528
1487,0.137269184
1486,0.1372092515
1485,0.1370392889
1484,0.1370946616
1483,0.1370850056
1482,0.1370435804
1481,0.1369352788
1480,0.1368898004
1479,0.1369137466
1478,0.136832431
1477,0.1368458867
1476,0.1367815286
1475,0.136734724
1474,0.1366364509
1473,0.1366508901
1472,0.1366222799
1471,0.1366070658
1470,0.1365399957
1469,0.1365176886
1468,0.1364759058
1467,0.1364883482
1466,0.1364198625
1465,0.1363702565
1464,0.1363415867
1463,0.1363546699
1462,0.136285007
1461,0.1362300962
1460,0.136247173
1459,0.1362210959
1458,0.1361306012
1457,0.1361498386
1456,0.1360816956
1455,0.136087358
1454,0.1360762864
1453,0.1360172927
1452,0.1359376609
1451,0.1359699965
1450,0.1359540224
1449,0.1359128952
1448,0.1358987242
1447,0.1358690709
1446,0.1358034909
1445,0.1357860118
1444,0.1357595325
1443,0.1357629001
1442,0.135740146
1441,0.1356852651
1440,0.1356582046
1439,0.1356040388
1438,0.135595277
1437,0.1356000155
1436,0.1355904639
1435,0.135506779
1434,0.1355025321
1433,0.1354592592
1432,0.1354532391
1431,0.1355137527
1430,0.1354249567
1429,0.1353534609
1428,0.1354145557
1427,0.1353331059
1426,0.1353018582
1425,0.1352864504
1424,0.1352619827
1423,0.1352855265
1422,0.1351968199
1421,0.1351596415
1420,0.1351006329
1419,0.1351342648
1418,0.1351910532
1417,0.1351362765
1416,0.1350068003
1415,0.13505283
1414,0.1349957734
1413,0.1350171864
1412,0.1349684
1411,0.1348912269
1410,0.1349169463
1409,0.134978503
1408,0.1348769963
1407,0.1348601878
1406,0.1349049658
1405,0.1349214315
1404,0.1348986477
1403,0.1347671598
1402,0.1346955001
1401,0.1346994787
1400,0.1347894371
1399,0.1347622871
1398,0.134659946
1397,0.1346337199
1396,0.1347328126
1395,0.1347870976
1394,0.1346301585
1393,0.1346251518
1392,0.134758994
1391,0.1346835941
1390,0.1345725954
1389,0.1346104741
1388,0.134640187
1387,0.1345502585
1386,0.1345486045
1385,0.1345353425
1384,0.1344673187
1383,0.1346164644
1382,0.1345785707
1381,0.1346070021
1380,0.1345463395
1379,0.1343782693
1378,0.1343412399
1377,0.1343263537
1376,0.1342479587
1375,0.134171024
1374,0.1341989487
1373,0.1340721697
1372,0.1342058182
1371,0.1342959851
1370,0.1341903508
1369,0.1340982616
1368,0.1341620982
1367,0.1340866685
1366,0.133980155
1365,0.1340616345
1364,0.1340651214
1363,0.1339443475
1362,0.1341005564
1361,0.1340171248
1360,0.133997038
1359,0.13392286
1358,0.1339091808
1357,0.1338231862
1356,0.1339132041
1355,0.1339101642
1354,0.1338569373
1353,0.1338791996
1352,0.1338324845
1351,0.1337868273
1350,0.1338139176
1349,0.1337942332
1348,0.1337692589
1347,0.1337687969
1346,0.1337973326
1345,0.1337517053
1344,0.1337550879
1343,0.1337192357
1342,0.1337942332
1341,0.1337419152
1340,0.1337555796
1339,0.1337713003
1338,0.1337519586
1337,0.1338076144
1336,0.1338094473
1335,0.1337790042
1334,0.1337866485
1333,0.1337936968
1332,0.1338246912
1331,0.1338117421
1330,0.1338822693
1329,0.1338425875
1328,0.1338564008
1327,0.1338872313
1326,0.133897692
1325,0.1338943541
1324,0.1338771582
1323,0.1339069009
1322,0.1338825822
1321,0.1339739114
1320,0.1339929104
1319,0.1339781433
1318,0.1339931637
1317,0.1339692324
1316,0.1340500116
1315,0.1341197342
1314,0.1341244876
1313,0.134133473
1312,0.1340904981
1311,0.1341318488
1310,0.1342217177
1309,0.1342745423
1308,0.1342606246
1307,0.1342878789
1306,0.1343561858
1305,0.1344035715
1304,0.1344498098
1303,0.1344699562
1302,0.1344582438
1301,0.1345848739
1300,0.1346051395
1299,0.1346214414
1298,0.1346896291
1297,0.134733513
1296,0.1347568482
1295,0.1348922998
1294,0.1348734051
1293,0.1349128187
1292,0.135046646
1291,0.1350594759
1290,0.1351666003
1289,0.1351977289
1288,0.1351784021
1287,0.1353010088
1286,0.1353268176
1285,0.1354139596
1284,0.1355043054
1283,0.1356092095
1282,0.1356369406
1281,0.1357310861
1280,0.1358023882
1279,0.1358991563
1278,0.1359416395
1277,0.1360082626
1276,0.136104688
1275,0.1361872703
1274,0.1363235265
1273,0.136394918
1272,0.1365074813
1271,0.1366077065
1270,0.1366617382
1269,0.1368272901
1268,0.1369009763
1267,0.1370346844
1266,0.1371085793
1265,0.1371860355
1264,0.1373547316
1263,0.1374664754
1262,0.1375402063
1261,0.137672469
1260,0.1378086507
1259,0.1379457563
1258,0.1380607188
1257,0.1381902546
1256,0.1382987648
1255,0.1384447664
1254,0.1385846436
1253,0.1386505663
1252,0.13887918
1251,0.1389587373
1250,0.1391078681
1249,0.139247179
1248,0.1394311339
1247,0.1395690441
1246,0.1397222579
1245,0.1398801506
1244,0.1400285065
1243,0.1401806921
1242,0.140361324
1241,0.1405034214
1240,0.1406740695
1239,0.1408435553
1238,0.140993312
1237,0.1411654353
1236,0.1413324922
1235,0.1414403617
1234,0.1416728795
1233,0.1418948323
1232,0.1420428604
1231,0.1422449201
1230,0.1423672438
1229,0.1426184177
1228,0.1428287625
1227,0.1430227757
1226,0.1432084441
1225,0.1433102936
1224,0.1435611546
1223,0.1437952369
1222,0.1440377533
1221,0.1442238986
1220,0.1444741637
1219,0.144624263
1218,0.1448558569
1217,0.1451090574
1216,0.1453369707
1215,0.1455809921
1214,0.1457945555
1213,0.1460462064
1212,0.1462957114
1211,0.1465544552
1210,0.1467822939
1209,0.1470710486
1208,0.1472992897
1207,0.1475543529
1206,0.1477993876
1205,0.1480980515
1204,0.148355484
1203,0.1486364156
1202,0.1488887668
1201,0.1492126435
1200,0.1494214237
1199,0.149572894
1198,0.1498505175
1197,0.1501089931
1196,0.150400728
1195,0.1506935805
1194,0.1510238349
1193,0.1513495594
1192,0.1516192704
1191,0.1519126147
1190,0.1522207111
1189,0.1525456905
1188,0.1528752893
1187,0.1531491429
1186,0.1534302533
1185,0.1537722945
1184,0.1541040093
1183,0.1544409245
1182,0.1547479779
1181,0.1550461352
1180,0.1554081142
1179,0.1557317376
1178,0.1559967995
1177,0.1563559026
1176,0.1566891819
1175,0.1570225805
1174,0.1573302299
1173,0.1576784402
1172,0.1579856575
1171,0.1582428366
1170,0.1585926712
1169,0.1589449644
1168,0.1592949182
1167,0.1595854163
1166,0.1599056721
1165,0.1602055281
1164,0.1606161147
1163,0.1609388441
1162,0.1612346172
1161,0.1615569443
1160,0.161881879
1159,0.1622076631
1158,0.1626273394
1157,0.162972182
1156,0.1633118987
1155,0.1635933369
1154,0.1639676839
1153,0.1643266529
1152,0.1647247821
1151,0.165089801
1150,0.1654291749
1149,0.1657397449
1148,0.1661800742
1147,0.1665688902
1146,0.1669645905
1145,0.1673394144
1144,0.1677852124
1143,0.168251276
1142,0.1686227024
1141,0.1690691113
1140,0.1694808155
1139,0.1699673384
1138,0.1704429537
1137,0.1708691269
1136,0.1713297963
1135,0.1718980372
1134,0.172390312
1133,0.1728735566
1132,0.1734368801
1131,0.1739003509
1130,0.1744162887
1129,0.1749419123
1128,0.1755434424
1127,0.1760765314
1126,0.176609382
1125,0.1771343946
1124,0.1776667088
1123,0.178303957
1122,0.1788811237
1121,0.179415077
1120,0.1799556762
1119,0.1805592924
1118,0.1811133474
1117,0.181698814
1116,0.1822447628
1115,0.1828052253
1114,0.1833554059
1113,0.1839271039
1112,0.1845061779
1111,0.1850264072
1110,0.1855869889
1109,0.1860993356
1108,0.1866626889
1107,0.1871764362
1106,0.187727198
1105,0.1881635338
1104,0.1886581928
1103,0.1891177595
1102,0.18960841
1101,0.1900431961
1100,0.1904321909
1099,0.1909343004
1098,0.1913133115
1097,0.1916941851
1096,0.1920134425
1095,0.1923583597
1094,0.1926764995
1093,0.1930286437
1092,0.1933394223
1091,0.1936085969
1090,0.193853125
1089,0.1941068619
1088,0.1943867058
1087,0.1946073174
1086,0.1948074549
1085,0.1949777454
1084,0.1951653957
1083,0.1953655928
1082,0.195599854
1081,0.1957823336
1080,0.195936963
1079,0.196077168
1078,0.1962597966
1077,0.1964033991
1076,0.1966258585
1075,0.196790725
1074,0.1969424039
1073,0.1971849054
1072,0.1973431259
1071,0.197571367
1070,0.1977789253
1069,0.1979509592
1068,0.1981948912
1067,0.1983955353
1066,0.1986680478
1065,0.1989171356
1064,0.1992155761
1063,0.1994797885
1062,0.1997592747
1061,0.2000834346
1060,0.2003656477
1059,0.2007113099
1058,0.2009793222
1057,0.2013890594
1056,0.2017365694
1055,0.2020471841
1054,0.2024178356
1053,0.202769056
1052,0.2031565607
1051,0.2035751939
1050,0.203969866
1049,0.2043044567
1048,0.2046890557
1047,0.205094263
1046,0.205447793
1045,0.2058405578
1044,0.2061433345
1043,0.2065108716
1042,0.2068728507
1041,0.207259357
1040,0.207537666
1039,0.2077649385
1038,0.208080858
1037,0.2083755881
1036,0.2086553574
1035,0.2089143842
1034,0.209080711
1033,0.2093035132
1032,0.2095306665
1031,0.2096364349
1030,0.2098477334
1029,0.2099271119
1028,0.2100097239
1027,0.2100728303
1026,0.210154593
1025,0.2102127075
1024,0.2102070004
1023,0.210180074
1022,0.2101883888
1021,0.2101906687
1020,0.2100384384
1019,0.2099848241
1018,0.209872961
1017,0.2097941935
1016,0.2096555233
1015,0.2095364034
1014,0.2093825638
1013,0.2091896385
1012,0.2090367675
1011,0.2088852376
1010,0.208633095
1009,0.2084474117
1008,0.2082451135
1007,0.2080751806
1006,0.2077905983
1005,0.207660079
1004,0.2073733062
1003,0.2070465684
1002,0.2068009973
1001,0.2065041661
1000,0.2062710971
999,0.2059594989
998,0.2056009918
997,0.2053172737
996,0.2050274312
995,0.2047095895
994,0.2043916881
993,0.2040187269
992,0.2036041468
991,0.2032524943
990,0.202927798
989,0.20259431
988,0.2022578716
987,0.2018456608
986,0.2015295625
985,0.2011363506
984,0.2007473111
983,0.2003832608
982,0.1999822259
981,0.1996111423
980,0.1991979629
979,0.1988439262
978,0.1985249668
977,0.1980949193
976,0.1978513002
975,0.1974973381
974,0.197205171
973,0.1969030052
972,0.1965652108
971,0.1962049305
970,0.1959377229
969,0.1957401186
968,0.1952490658
967,0.1950421184
966,0.1948060691
965,0.1943990588
964,0.1941818148
963,0.1939368248
962,0.1935804188
961,0.1933196336
960,0.1930822581
959,0.1928260177
958,0.1924741119
957,0.1920751482
956,0.1918808222
955,0.1916477829
954,0.1913045794
953,0.1909668893
952,0.1905795783
951,0.1902488172
950,0.1899657845
949,0.1896228343
948,0.1893391907
947,0.1888241768
946,0.1885293424
945,0.1882114112
944,0.1878033727
943,0.1874400824
942,0.1869763583
941,0.1866155863
940,0.1863454729
939,0.1859813482
938,0.1855382919
937,0.1851779222
936,0.1848318428
935,0.1843890548
934,0.1840337515
933,0.1835944206
932,0.1832793951
931,0.1829304099
930,0.1824711561
929,0.1820842177
928,0.1816476136
927,0.1812725365
926,0.1808671206
925,0.180424273
924,0.1800176948
923,0.179678753
922,0.1793660074
921,0.1788637638
920,0.1785462946
919,0.1780914217
918,0.1777284443
917,0.1771693081
916,0.1767520756
915,0.1763966978
914,0.1760107577
913,0.1755855232
912,0.1753656715
911,0.174772054
910,0.1744753569
909,0.1740727574
908,0.173648417
907,0.1734411567
906,0.1731026024
905,0.172710672
904,0.1721613407
903,0.1717701107
902,0.1716089398
901,0.171147719
900,0.1708481908
899,0.1682158411
898,0.1692661047
897,0.1697726697
896,0.1754805446
895,0.1750971526
894,0.166364938
893,0.1650332063
892,0.1685520709
891,0.1680486798
890,0.172294423
889,0.1707619131
888,0.1712521017
887,0.1687594354
886,0.1672416627
885,0.1680648774
884,0.1671152562
883,0.1700214148
882,0.1708898097
881,0.1650862843
880,0.1656130105
879,0.1668943614
878,0.164301753
877,0.169503957
876,0.168659687
875,0.1650446504
874,0.16945225
873,0.1651900262
872,0.1668655872
871,0.1662572771
870,0.1640827507
869,0.1641961932
868,0.1656372249
867,0.1640818864
866,0.1633818448
865,0.1631920934
864,0.1649723798
863,0.164688617
862,0.165698573
861,0.165088743
860,0.1635427773
859,0.1650608033
858,0.163962841
857,0.166162461
856,0.1635981202
855,0.1624751389
854,0.1639218032
853,0.1629885733
852,0.1626194417
851,0.1634569764
850,0.1648030579
849,0.1637905389
848,0.1635015905
847,0.1638871431
846,0.1629808098
845,0.162895143
844,0.1637601256
843,0.1636282653
842,0.1630654335
841,0.1633676291
840,0.162501812
839,0.1630627215
838,0.1635603607
837,0.1633459479
836,0.163089931
835,0.1629954576
834,0.1630205512
833,0.1637417078
832,0.163263157
831,0.1634269953
830,0.1639441848
829,0.1638160646
828,0.1641318202
827,0.1633462906
826,0.1642368436
825,0.1639905274
824,0.1638828069
823,0.1645281017
822,0.1644142717
821,0.1645622402
820,0.1651443243
819,0.1647565216
818,0.1649884284
817,0.1650926769
816,0.1654022038
815,0.1656171083
814,0.1656448841
813,0.1650842428
812,0.1659524143
811,0.1660703719
810,0.1664613634
809,0.1666815728
808,0.166887641
807,0.166799292
806,0.1676528305
805,0.1675333381
804,0.1678875834
803,0.1678230017
802,0.1684081107
801,0.168328315
800,0.1688784957
799,0.1688730717
798,0.1690463424
797,0.1696680933
796,0.1697841138
795,0.1698081791
794,0.1701475531
793,0.1702681035
792,0.170691967
791,0.1708328873
790,0.1708845198
789,0.1712542176
788,0.1713019907
787,0.171958372
786,0.172140941
785,0.1722007394
784,0.1726166308
783,0.1725212634
782,0.1731115431
781,0.1730820835
780,0.1737054437
779,0.173966676
778,0.17408216
777,0.1743463278
776,0.1746566296
775,0.1748985797
774,0.1752558351
773,0.1757344753
772,0.1760233045
771,0.176265195
770,0.1770485789
769,0.1776659638
768,0.1778296828
767,0.1784221083
766,0.1785067022
765,0.1791952252
764,0.1799468249
763,0.1802249402
762,0.1808595806
761,0.181155771
760,0.1821261197
759,0.1822021902
758,0.1831040829
757,0.1835262775
756,0.1840192378
755,0.1849199682
754,0.1849232465
753,0.1853328645
752,0.1856972128
751,0.1863565743
750,0.1869051754
749,0.1873719692
748,0.1875225604
747,0.1880071461
746,0.1880974323
745,0.1885565966
744,0.1887285411
743,0.1889987737
742,0.1893302202
741,0.1895309091
740,0.1899012476
739,0.1896802336
738,0.1898503751
737,0.1901149005
736,0.1903016269
735,0.1901686043
734,0.1901066005
733,0.1902349442
732,0.1902907044
731,0.1904303432
730,0.1904926747
729,0.1904886961
728,0.1906090081
727,0.1906012595
726,0.1907200366
725,0.1908344179
724,0.1911004633
723,0.1911328286
722,0.1912359893
721,0.1915023178
720,0.1915052086
719,0.1918147951
718,0.1920384467
717,0.1920912713
716,0.1920152903
715,0.1925038695
714,0.1926911771
713,0.1928645223
712,0.1928909123
711,0.1932603717
710,0.1934062541
709,0.1934678406
708,0.1937431544
707,0.1936934888
706,0.1941835284
705,0.1939410716
704,0.1940710396
703,0.194124952
702,0.194334656
701,0.1941214651
700,0.1941820979
699,0.1942041218
698,0.1943117082
697,0.1940753311
696,0.1938144565
695,0.1938614994
694,0.19386971
693,0.193653062
692,0.1936026514
691,0.1934332103
690,0.1932328194
689,0.1930485964
688,0.1928357035
687,0.1927079558
686,0.1925508976
685,0.1924821734
684,0.1921149492
683,0.1920603663
682,0.1917619258
681,0.1915853173
680,0.1914406419
679,0.1914320439
678,0.1910892129
677,0.1908674091
676,0.1907789558
675,0.1906335801
674,0.1903460026
673,0.190299049
672,0.1899974197
671,0.1897217482
670,0.1895325035
669,0.1894646287
668,0.1892841607
667,0.1888984293
666,0.1888655573
665,0.1886852831
664,0.1886095107
663,0.1883075237
662,0.188319549
661,0.1880141348
660,0.1881616563
659,0.1878669709
658,0.187710762
657,0.1875401437
656,0.1873353571
655,0.1873691529
654,0.1872206032
653,0.18723993
652,0.1869378537
651,0.1868565679
650,0.1869047731
649,0.1867616922
648,0.186491847
647,0.1864686608
646,0.186281994
645,0.1861671656
644,0.1861298084
643,0.1861085892
642,0.1859245002
641,0.1854596883
640,0.1855313182
639,0.1854550838
638,0.1853233427
637,0.1851692051
636,0.1849681139
635,0.184704721
634,0.1847112626
633,0.1845452189
632,0.1843034178
631,0.1843596548
630,0.1842676401
629,0.1841552556
628,0.1839795411
627,0.1839449406
626,0.1838546842
625,0.18385306
624,0.1837240607
623,0.1836236566
622,0.1836084127
621,0.1835460663
620,0.1833363771
619,0.1833454072
618,0.1833122522
617,0.1833524853
616,0.1832610071
615,0.1835614741
614,0.1833963841
613,0.1833972633
612,0.1834679097
611,0.1836437732
610,0.183653295
609,0.183854416
608,0.1840220392
607,0.1839832962
606,0.1842234582
605,0.1844580472
604,0.1846855581
603,0.1848037094
602,0.1850584745
601,0.1854980141
600,0.1854560822
599,0.1857928634
598,0.1861259639
597,0.1863319278
596,0.1865077913
595,0.1867517829
594,0.1870778203
593,0.1872598976
592,0.1875327677
591,0.1876460314
590,0.1878690422
589,0.1879765689
588,0.1881555915
587,0.1884112954
586,0.1884421706
585,0.1886841655
584,0.1887805462
583,0.1889037043
582,0.1888377219
581,0.1888536364
580,0.1887974292
579,0.1890111715
578,0.1891046762
577,0.1894350052
576,0.189439401
575,0.1896229535
574,0.1900673807
573,0.1903187186
572,0.1905810237
571,0.19090119
570,0.1914517134
569,0.191629827
568,0.1923075765
567,0.1926377714
566,0.1933939755
565,0.1938023567
564,0.1941478252
563,0.1948111057
562,0.1950663775
561,0.1957338154
560,0.1962405592
559,0.1965758353
558,0.197097525
557,0.1972469091
556,0.1973870844
555,0.197643429
554,0.1980292052
553,0.1978378296
552,0.1979686767
551,0.1975562423
550,0.1974297017
549,0.1975874454
548,0.1972024739
547,0.1971647292
546,0.196715951
545,0.1967568398
544,0.1967514604
543,0.1964982599
542,0.1966038793
541,0.1965855509
540,0.1965816021
539,0.1967386752
538,0.1969650537
537,0.197183609
536,0.1973536462
535,0.1978659183
534,0.1982219666
533,0.1987358332
532,0.1988733858
531,0.199480325
530,0.1998014599
529,0.2002318054
528,0.2006914169
527,0.2010502964
526,0.2014907002
525,0.2016513646
524,0.2023453116
523,0.2022293806
522,0.202468574
521,0.202520892
520,0.2027358264
519,0.2029135078
518,0.2028145194
517,0.2028199732
516,0.2030728906
515,0.2031242847
514,0.2028295845
513,0.202960059
512,0.2031471878
511,0.2032913119
510,0.2034662068
509,0.2038197219
508,0.2039888352
507,0.204142347
506,0.2044015527
505,0.2049870491
504,0.2052374631
503,0.2057649344
502,0.2063411623
501,0.206814006
500,0.2073568255
499,0.2081242055
498,0.2085122466
497,0.2091188282
496,0.2097086012
495,0.2102237642
494,0.2105680406
493,0.2109346688
492,0.2110610306
491,0.2110839635
490,0.211121887
489,0.2108334601
488,0.210539192
487,0.2102711797
486,0.2095989883
485,0.2093873024
484,0.2092656195
483,0.2089093179
482,0.2085661441
481,0.2085265964
480,0.2085267305
479,0.20862405
478,0.2087134123
477,0.2090463936
476,0.2092757225
475,0.2098691463
474,0.2101316601
473,0.2110218108
472,0.2113843262
471,0.2120662034
470,0.2127005458
469,0.2131425589
468,0.2136223614
467,0.2138265371
466,0.2141852528
465,0.2138615698
464,0.2139026523
463,0.213775754
462,0.2134117931
461,0.2132690996
460,0.2128905654
459,0.2124497294
458,0.2121272534
457,0.2118636072
456,0.2115682364
455,0.2116590887
454,0.211596176
453,0.2117618471
452,0.2118589729
451,0.2123996168
450,0.2126257867
449,0.2129670978
448,0.2133909017
447,0.2137738168
446,0.2143524736
445,0.2146321386
444,0.2150895894
443,0.2157705128
442,0.2160358131
441,0.2161834687
440,0.2166385949
439,0.2168899179
438,0.2170483172
437,0.2170349658
436,0.2176104188
435,0.2178209275
434,0.2177724987
433,0.2183423042
432,0.2185612172
431,0.2190182358
430,0.219027251
429,0.2195031196
428,0.2203906476
427,0.2206439823
426,0.220884949
425,0.2212073207
424,0.2219382226
423,0.2225110084
422,0.2229783982
421,0.2232324183
420,0.2235573232
419,0.2239570767
418,0.2238714993
417,0.2237633318
416,0.2240787446
415,0.2241907716
414,0.2243394852
413,0.2246494144
412,0.2248766571
411,0.2251223326
410,0.2251437157
409,0.2261906862
408,0.22674115
407,0.2271417975
406,0.2278559804
405,0.228444919
404,0.2289783806
403,0.2298935503
402,0.2306419164
401,0.2310433537
400,0.2316812873
399,0.2322630584
398,0.2325547189
397,0.2331820428
396,0.2333631963
395,0.2334064394
394,0.2337140739
393,0.2343089283
392,0.2346146852
391,0.2348744124
390,0.2352251858
389,0.2357172817
388,0.2362625748
387,0.2365809828
386,0.2373353392
385,0.2377562225
384,0.2383339107
383,0.238901794
382,0.2397815287
381,0.2405802906
380,0.2413711399
379,0.2419574261
378,0.2430117577
377,0.2438233495
376,0.2444830239
375,0.2453307062
374,0.2457876652
373,0.2471851408
372,0.2477432787
371,0.2485081553
370,0.249337405
369,0.249910742
368,0.2502608895
367,0.2509119213
366,0.2510378063
365,0.2521959841
364,0.252722919
363,0.2527137995
362,0.2536060512
361,0.2543839514
360,0.2552992702
359,0.2562041283
358,0.2573690712
357,0.2584193051
356,0.2597880363
355,0.2609983981
354,0.2615875006
353,0.2629890144
352,0.2639257908
351,0.2653057575
350,0.2657880485
349,0.2652305961
348,0.2658519745
347,0.2661933899
346,0.2670089602
345,0.267119348
344,0.2690210342
343,0.2703375518
342,0.2713037133
341,0.2721183896
340,0.2732097507
339,0.2736129463
338,0.2751283944
337,0.2764907181
336,0.2779452205
335,0.2790559828
334,0.2806937099
333,0.2811566889
332,0.2827579975
331,0.2834795117
330,0.2849748135
329,0.2859519124
328,0.287157625
327,0.2882321477
326,0.2894224226
325,0.2908165753
324,0.2919378281
323,0.2941661775
322,0.2953163087
321,0.2981553078
320,0.2997747362
319,0.3016123772
318,0.3024248779
317,0.3048901856
316,0.3063863814
315,0.308354795
314,0.3103131354
313,0.3123082817
312,0.3134686649
311,0.3153890967
310,0.3185064495
309,0.3205934167
308,0.3217397034
307,0.3246909678
306,0.3264863193
305,0.3295273483
304,0.3317586184
303,0.33410272
302,0.3367678225
301,0.339048028
300,0.3413285613
299,0.3432743251
298,0.3459957242
297,0.3482668996
296,0.3509945571
295,0.3533217311
294,0.3561252356
293,0.3590299487
292,0.3618275225
291,0.3643099666
290,0.3673117161
289,0.3697645366
288,0.3722851276
287,0.3754431903
286,0.3778195381
285,0.3801534176
284,0.3826017082
283,0.3846088052
282,0.3872584105
281,0.3887988925
280,0.3912643194
279,0.3924873173
278,0.3942576349
277,0.396345377
276,0.397174567
275,0.3987934887
274,0.3994055092
273,0.3998493552
272,0.4010030329
271,0.4010486901
270,0.4014758766
269,0.4010209441
268,0.4009113908
267,0.4003598094
266,0.3997994959
265,0.3996144831
264,0.3991990685
263,0.3975742459
262,0.396807909
261,0.3952994347
260,0.3941499591
259,0.3925503492
258,0.3908635974
257,0.3892466128
256,0.3878827989
255,0.3857787251
254,0.3839139044
253,0.3814736903
252,0.3791089356
251,0.3763982952
250,0.3739030659
249,0.3705907166
248,0.3676938415
247,0.3642309308
246,0.3603305221
245,0.3565010726
244,0.3526396453
243,0.3482505679
242,0.344977349
241,0.3412767053
240,0.3379875124
239,0.3342352808
238,0.3305753767
237,0.3278613985
236,0.3247597516
235,0.3221848309
234,0.319532752
233,0.3168192208
232,0.3147105873
231,0.3131355345
230,0.3115742505
229,0.3103025556
228,0.3088934124
227,0.3088302612
226,0.3088386655
225,0.3103008866
224,0.3130220175
223,0.3170813024
222,0.3231735229
221,0.3308850527
220,0.3422690034
219,0.3543156981
218,0.3711371124
217,0.3887078762
216,0.408200562
215,0.4305254519
214,0.4535220265
213,0.4763921797
212,0.4985413551
211,0.518650353
210,0.5377812982
209,0.5529597402
208,0.5659498572
207,0.5751065612
206,0.581977427
205,0.583067894
204,0.5837006569
203,0.5804835558
202,0.5732648373
201,0.5659498572
200,0.5556790829
