Dodecane_KIT_Vac_350
Wavelength (nm),Abs
2655,0.07560098916
2654,0.07533849031
2653,0.07669744641
2652,0.07777064294
2651,0.07760443538
2650,0.0776013732
2649,0.07819345593
2648,0.07747022808
2647,0.07735417783
2646,0.07933858782
2645,0.07851310819
2644,0.07832903415
2643,0.07764733583
2642,0.07757661492
2641,0.07744602859
2640,0.07782309502
2639,0.07807371765
2638,0.07719131559
2637,0.07813736051
2636,0.07764272392
2635,0.07552795112
2634,0.07667268068
2633,0.07702190429
2632,0.0742970854
2631,0.06976207346
2630,0.07634879649
2629,0.07837163657
2628,0.07650822401
2627,0.07691021264
2626,0.0803077966
2625,0.07916293293
2624,0.07796407491
2623,0.07786165178
2622,0.07666604221
2621,0.0728951171
2620,0.07579549402
2619,0.07861007005
2618,0.07305110991
2617,0.0733313784
2616,0.07682292908
2615,0.07738223672
2614,0.07650516182
2613,0.07847288251
2612,0.0780936107
2611,0.07755835354
2610,0.07605564594
2609,0.07910562307
2608,0.07875121385
2607,0.07816614956
2606,0.07702403516
2605,0.07518641651
2604,0.07970548421
2603,0.07759026438
2602,0.07653328776
2601,0.07810637355
2600,0.07905811071
2599,0.07794542611
2598,0.07689074427
2597,0.07306966931
2596,0.06878879666
2595,0.07243096828
2594,0.07827233523
2593,0.07896365225
2592,0.07987915725
2591,0.0779979676
2590,0.07643910497
2589,0.07660158724
2588,0.07788453996
2587,0.08068239689
2586,0.07893850654
2585,0.07497818768
2584,0.07740203291
2583,0.0797381103
2582,0.07805236429
2581,0.07933793962
2580,0.08002049476
2579,0.0788725391
2578,0.07871956378
2577,0.08077461272
2576,0.08042537421
2575,0.07960659266
2574,0.0788820982
2573,0.08014777303
2572,0.07948861271
2571,0.0794993639
2570,0.07888228446
2569,0.07835386693
2568,0.07927697152
2567,0.07929629833
2566,0.07917694002
2565,0.07912170887
2564,0.07742242515
2563,0.07648766041
2562,0.07663111389
2561,0.07917609811
2560,0.08067233115
2559,0.08039967716
2558,0.08004190773
2557,0.07975365967
2556,0.08003689349
2555,0.07988938689
2554,0.07973182946
2553,0.07926765084
2552,0.07875456661
2551,0.0795852989
2550,0.08016200364
2549,0.07977484167
2548,0.0802699253
2547,0.08016075939
2546,0.07975876331
2545,0.08068997413
2544,0.07971291989
2543,0.08035376668
2542,0.08013939857
2541,0.07996080071
2540,0.08071637154
2539,0.08063630015
2538,0.08002357185
2537,0.07970330864
2536,0.0796430409
2535,0.08043512702
2534,0.08033628762
2533,0.0800280273
2532,0.07982246578
2531,0.07993855327
2530,0.08065973967
2529,0.08074265718
2528,0.08053224534
2527,0.08067631721
2526,0.08105423301
2525,0.08079715073
2524,0.08107685298
2523,0.08093651384
2522,0.08073822409
2521,0.08121646196
2520,0.08109295368
2519,0.08095647395
2518,0.0808898285
2517,0.08078406006
2516,0.08097509295
2515,0.08106150478
2514,0.08140771836
2513,0.08127039671
2512,0.08100095391
2511,0.08112855256
2510,0.08164698631
2509,0.08109492064
2508,0.08147329092
2507,0.08099524677
2506,0.08124630153
2505,0.08119742572
2504,0.08128884435
2503,0.08182671666
2502,0.08185599744
2501,0.08166841418
2500,0.0820383504
2499,0.08159565926
2498,0.08138811588
2497,0.0819587782
2496,0.08161815256
2495,0.08154456317
2494,0.08127944916
2493,0.08205097914
2492,0.0819221735
2491,0.08199492097
2490,0.08221414685
2489,0.08190251142
2488,0.0820556432
2487,0.08221601695
2486,0.0821185559
2485,0.08215440065
2484,0.0824444592
2483,0.08222790807
2482,0.08203838021
2481,0.08233709633
2480,0.08209376037
2479,0.08216584474
2478,0.08232636005
2477,0.08257380128
2476,0.08218617737
2475,0.08241541684
2474,0.08236162364
2473,0.0824406445
2472,0.08280666173
2471,0.08268129081
2470,0.08272936195
2469,0.08253088593
2468,0.08264812827
2467,0.08303178102
2466,0.08272958547
2465,0.08274279535
2464,0.08300000429
2463,0.08288031071
2462,0.08276174963
2461,0.08311904222
2460,0.0831567198
2459,0.08297825605
2458,0.08309308439
2457,0.08302851766
2456,0.08313167095
2455,0.0833055228
2454,0.08348324895
2453,0.08323792368
2452,0.08348400146
2451,0.08344795555
2450,0.08342003822
2449,0.08324701339
2448,0.08364342898
2447,0.08337771893
2446,0.08371370286
2445,0.08382710069
2444,0.08386546373
2443,0.0835935995
2442,0.08405146003
2441,0.083794415
2440,0.08372042328
2439,0.08397066593
2438,0.08416964859
2437,0.08388597518
2436,0.08393401653
2435,0.08426125348
2434,0.08381406963
2433,0.08409933746
2432,0.08449964225
2431,0.08425292373
2430,0.08423171192
2429,0.0844443962
2428,0.08438161016
2427,0.08431682736
2426,0.08465429395
2425,0.08472287655
2424,0.08438196033
2423,0.08473587036
2422,0.08484351635
2421,0.08449760079
2420,0.08499620855
2419,0.0847928226
2418,0.08456521481
2417,0.08493472636
2416,0.085048154
2415,0.08491320163
2414,0.08515641838
2413,0.08523648232
2412,0.08494713157
2411,0.08510222286
2410,0.08546989411
2409,0.08519458771
2408,0.08528886735
2407,0.08558806032
2406,0.08523666859
2405,0.08554462343
2404,0.08575454354
2403,0.08547064662
2402,0.08566460758
2401,0.0858495459
2400,0.08576460183
2399,0.08578582853
2398,0.08597765863
2397,0.08585515618
2396,0.08593720943
2395,0.0862634033
2394,0.08637689799
2393,0.08606538922
2392,0.08645089716
2391,0.08645175397
2390,0.08614094555
2389,0.08671271056
2388,0.08652479202
2387,0.08647471666
2386,0.08661281317
2385,0.08671662956
2384,0.08671950549
2383,0.08692996949
2382,0.08708813787
2381,0.08697313815
2380,0.08702557534
2379,0.0872560218
2378,0.08721981943
2377,0.08708842844
2376,0.08749894053
2375,0.08754149824
2374,0.08748390526
2373,0.08773490041
2372,0.08775442094
2371,0.0876237452
2370,0.08789692074
2369,0.08794955909
2368,0.08803112805
2367,0.08795878291
2366,0.08814993501
2365,0.08829960227
2364,0.08821839839
2363,0.08822017908
2362,0.08871326596
2361,0.08860751241
2360,0.08847867697
2359,0.08870405704
2358,0.08898693323
2357,0.08877366781
2356,0.08884817362
2355,0.08918946981
2354,0.08902531862
2353,0.08908327669
2352,0.08942800015
2351,0.08942122757
2350,0.08948833495
2349,0.08962669969
2348,0.08971879631
2347,0.08982303739
2346,0.08974047005
2345,0.08986337483
2344,0.0901896283
2343,0.09011473507
2342,0.09007940441
2341,0.09043381363
2340,0.09032884985
2339,0.09039983153
2338,0.09062668681
2337,0.09071003646
2336,0.09060493857
2335,0.090707995
2334,0.09093711525
2333,0.09103149921
2332,0.09094273299
2331,0.09115525335
2330,0.09148174524
2329,0.09152130783
2328,0.09136962891
2327,0.09165549278
2326,0.09192077816
2325,0.09159881622
2324,0.09186499566
2323,0.09219080955
2322,0.09206125885
2321,0.09211736172
2320,0.09244634211
2319,0.09245111048
2318,0.09256869555
2317,0.09262155741
2316,0.09278544039
2315,0.0930160135
2314,0.0929414928
2313,0.09298465401
2312,0.09336403757
2311,0.09337253869
2310,0.09341561794
2309,0.0936300531
2308,0.09380272776
2307,0.09381417185
2306,0.0938912183
2305,0.09409013391
2304,0.09445855021
2303,0.09436807781
2302,0.09423440695
2301,0.09459538013
2300,0.09472684562
2299,0.09472236782
2298,0.09477021545
2297,0.09494224936
2296,0.09532508999
2295,0.09516534209
2294,0.09531593323
2293,0.09553808719
2292,0.095710136
2291,0.09573505074
2290,0.09575105458
2289,0.09622902423
2288,0.09601924568
2287,0.09618105739
2286,0.09620372951
2285,0.09651535749
2284,0.09683028609
2283,0.09701595455
2282,0.09681274742
2281,0.09704951942
2280,0.09738831967
2279,0.09729918092
2278,0.09748272598
2277,0.09738582373
2276,0.09793707728
2275,0.09781378508
2274,0.09762550145
2273,0.09789313376
2272,0.09852232784
2271,0.09826177359
2270,0.09845493734
2269,0.09853184223
2268,0.09880241007
2267,0.09882727265
2266,0.0987881422
2265,0.09941518307
2264,0.09933388978
2263,0.09934352338
2262,0.09988378733
2261,0.09958610684
2260,0.09983071685
2259,0.1006101072
2258,0.1003152877
2257,0.1004962251
2256,0.1004048884
2255,0.1005439609
2254,0.1012817174
2253,0.1011898518
2252,0.101152733
2251,0.1013226062
2250,0.1015943959
2249,0.1015230343
2248,0.1019416675
2247,0.1017196849
2246,0.1020938456
2245,0.1026077047
2244,0.1024354845
2243,0.1027115136
2242,0.1026975438
2241,0.1030059606
2240,0.1032794565
2239,0.1032932177
2238,0.1031796485
2237,0.103810668
2236,0.1038503796
2235,0.1041474417
2234,0.1039819494
2233,0.1042505056
2232,0.1046052799
2231,0.1050448641
2230,0.1048596129
2229,0.1049201563
2228,0.1052606031
2227,0.105382733
2226,0.1058515459
2225,0.1056723297
2224,0.1057488322
2223,0.1062502414
2222,0.1064444184
2221,0.1066922247
2220,0.1067756638
2219,0.1068597212
2218,0.1071733907
2217,0.1072960943
2216,0.1076545566
2215,0.1077046469
2214,0.1079484597
2213,0.1082969978
2212,0.108610481
2211,0.1088517457
2210,0.1087584943
2209,0.1088555679
2208,0.109249711
2207,0.1096332148
2206,0.1098053455
2205,0.1101242527
2204,0.1102095246
2203,0.110254772
2202,0.1107119396
2201,0.1109876931
2200,0.1108180732
2199,0.1110006273
2198,0.1112839654
2197,0.111550346
2196,0.1116558462
2195,0.111944966
2194,0.111906141
2193,0.11201334
2192,0.1122517362
2191,0.1123387367
2190,0.1128986403
2189,0.1131927148
2188,0.1131367907
2187,0.1134704575
2186,0.1134565771
2185,0.1137686297
2184,0.1140654534
2183,0.1142735928
2182,0.1143823862
2181,0.1144561619
2180,0.1148183942
2179,0.1151931137
2178,0.115361385
2177,0.115703024
2176,0.1154846027
2175,0.115861617
2174,0.1160846576
2173,0.1166885272
2172,0.1168449149
2171,0.1168828234
2170,0.1171120852
2169,0.1172996163
2168,0.1175946593
2167,0.1178526804
2166,0.1182173193
2165,0.1183278486
2164,0.1185966805
2163,0.1187831908
2162,0.119204469
2161,0.1192421392
2160,0.1195694879
2159,0.1197942719
2158,0.1199690774
2157,0.1203577295
2156,0.1203417853
2155,0.1208682358
2154,0.1209400073
2153,0.1212051287
2152,0.1215083152
2151,0.1215310171
2150,0.1218527332
2149,0.1222957969
2148,0.1226215437
2147,0.1227714568
2146,0.1231754124
2145,0.1231163293
2144,0.1234987602
2143,0.1237750128
2142,0.1241029426
2141,0.124402158
2140,0.1245839298
2139,0.1248880401
2138,0.1251421422
2137,0.1253956109
2136,0.1254331619
2135,0.1259394735
2134,0.1261266917
2133,0.1263688505
2132,0.1266514063
2131,0.1269481927
2130,0.127299726
2129,0.1272934079
2128,0.1278228462
2127,0.1279844046
2126,0.1283707321
2125,0.128724739
2124,0.1289362311
2123,0.1291905195
2122,0.1295091063
2121,0.1297561526
2120,0.130031988
2119,0.1302893013
2118,0.1306813955
2117,0.1310441494
2116,0.1312444508
2115,0.1314364076
2114,0.1318270117
2113,0.132281214
2112,0.1323255897
2111,0.1328325421
2110,0.1330923885
2109,0.1334109008
2108,0.133757025
2107,0.1340667903
2106,0.1342035681
2105,0.134661153
2104,0.1349703521
2103,0.1351000667
2102,0.13547948
2101,0.1361072958
2100,0.1360771656
2099,0.1365790963
2098,0.1368732005
2097,0.1372770369
2096,0.1375165433
2095,0.1378304064
2094,0.1381889135
2093,0.1385732442
2092,0.1389145404
2091,0.139255777
2090,0.1394733936
2089,0.1399803013
2088,0.1402278095
2087,0.1406070739
2086,0.1409307718
2085,0.1411643922
2084,0.1414929181
2083,0.1419593692
2082,0.1423560977
2081,0.1428369284
2080,0.1430549473
2079,0.1434545964
2078,0.1437897235
2077,0.1440703273
2076,0.1445142031
2075,0.1447868794
2074,0.1450483203
2073,0.145527795
2072,0.1458883286
2071,0.1463548094
2070,0.1465162635
2069,0.1470795721
2068,0.1474486291
2067,0.1478786916
2066,0.1482547373
2065,0.1486112028
2064,0.1489598602
2063,0.1490865946
2062,0.1497825384
2061,0.1500763297
2060,0.1502765268
2059,0.1507136524
2058,0.1511342376
2057,0.1515835971
2056,0.1519497484
2055,0.152436167
2054,0.152806133
2053,0.1534285694
2052,0.1536056846
2051,0.1538660675
2050,0.1543384641
2049,0.1547025442
2048,0.1552889198
2047,0.1554500163
2046,0.1559495032
2045,0.1564242542
2044,0.1568190157
2043,0.1571090221
2042,0.1575918496
2041,0.158108592
2040,0.1582975835
2039,0.1587483734
2038,0.159012109
2037,0.1595109254
2036,0.1598405093
2035,0.1603531241
2034,0.1607826948
2033,0.1611774415
2032,0.1615542024
2031,0.1620452404
2030,0.1623267084
2029,0.1627991498
2028,0.1630631685
2027,0.163440749
2026,0.1640044153
2025,0.1643563211
2024,0.1648687422
2023,0.1651275158
2022,0.1655827314
2021,0.1659154743
2020,0.1664090604
2019,0.1668302715
2018,0.1672007293
2017,0.1676201522
2016,0.1679778993
2015,0.1684641838
2014,0.1689017266
2013,0.1692875475
2012,0.1695284396
2011,0.1700440049
2010,0.1704751104
2009,0.1707817018
2008,0.1712718755
2007,0.1716237664
2006,0.1719383746
2005,0.1724818349
2004,0.1728679389
2003,0.1730904579
2002,0.1736243963
2001,0.1739582568
2000,0.1743845791
1999,0.1748015881
1998,0.1752338558
1997,0.1756606549
1996,0.1759601831
1995,0.1764083952
1994,0.1766988039
1993,0.1774000078
1992,0.1775733083
1991,0.1779784262
1990,0.1782661378
1989,0.1786468178
1988,0.1789713651
1987,0.1794884056
1986,0.1797553003
1985,0.1801965237
1984,0.1806325763
1983,0.1808255464
1982,0.1812942624
1981,0.1815831214
1980,0.1819519699
1979,0.1824285984
1978,0.1827783734
1977,0.1831475347
1976,0.1835123003
1975,0.1838121116
1974,0.1842065156
1973,0.184588775
1972,0.1848894954
1971,0.1852384806
1970,0.1855784953
1969,0.1859949231
1968,0.1863318086
1967,0.1866196096
1966,0.187169224
1965,0.1874156594
1964,0.1877287477
1963,0.1879594475
1962,0.1883592904
1961,0.1888522804
1960,0.189076826
1959,0.1895410866
1958,0.1899340302
1957,0.1901359111
1956,0.1905544549
1955,0.1908305734
1954,0.1910989881
1953,0.1915139407
1952,0.1919438094
1951,0.1923278123
1950,0.1926537752
1949,0.1930486709
1948,0.1932408214
1947,0.1935421377
1946,0.1939364225
1945,0.194423154
1944,0.1947738826
1943,0.1949956417
1942,0.195407033
1941,0.1956935674
1940,0.1960334927
1939,0.1965677738
1938,0.1968006492
1937,0.1971295625
1936,0.1976608485
1935,0.1978532076
1934,0.1982275248
1933,0.1986681819
1932,0.1989152431
1931,0.1992668808
1930,0.1994973272
1929,0.200161621
1928,0.2004145533
1927,0.2008530647
1926,0.2010677457
1925,0.2014107108
1924,0.2018583119
1923,0.202150777
1922,0.2021349519
1921,0.2026007622
1920,0.2035816014
1919,0.2038407922
1918,0.2039486319
1917,0.204298079
1916,0.2046828866
1915,0.2050732225
1914,0.2056336999
1913,0.2059375793
1912,0.2060976177
1911,0.2066527009
1910,0.2070040852
1909,0.2072865218
1908,0.2074180096
1907,0.2076556534
1906,0.2085773945
1905,0.2090809941
1904,0.2090410739
1903,0.2095332593
1902,0.2097832859
1901,0.2098783404
1900,0.210714817
1899,0.2111140192
1898,0.2114126235
1897,0.2116690278
1896,0.211921677
1895,0.2120802999
1894,0.2126485407
1893,0.213098377
1892,0.2131164223
1891,0.2136069536
1890,0.2142116576
1889,0.2144925147
1888,0.2146487236
1887,0.2149749994
1886,0.2153318971
1885,0.2155421972
1884,0.2160682529
1883,0.2163093239
1882,0.2165859044
1881,0.2169206738
1880,0.2171884626
1879,0.217286095
1878,0.2176117897
1877,0.2180650234
1876,0.2184648067
1875,0.2183655798
1874,0.2185245752
1873,0.219219923
1872,0.2194399685
1871,0.2197104692
1870,0.2201448977
1869,0.2200704366
1868,0.2208667397
1867,0.2211263329
1866,0.2208955735
1865,0.2211031169
1864,0.2214750499
1863,0.2216963321
1862,0.2217103541
1861,0.2217252254
1860,0.2222833186
1859,0.2226732522
1858,0.2226411402
1857,0.2228286266
1856,0.2231268734
1855,0.2230271101
1854,0.223460272
1853,0.2240093201
1852,0.223680824
1851,0.2238152474
1850,0.2237963527
1849,0.2237298787
1848,0.2243348956
1847,0.2247297913
1846,0.2245619744
1845,0.2243766785
1844,0.2244909555
1843,0.2243065089
1842,0.2247355282
1841,0.2248818278
1840,0.2249510884
1839,0.2248820961
1838,0.2246970981
1837,0.2250224948
1836,0.2251026779
1835,0.225322634
1834,0.2249854207
1833,0.2249500006
1832,0.2249255031
1831,0.224954471
1830,0.2251012921
1829,0.2250967175
1828,0.2249693871
1827,0.2248593718
1826,0.2251767069
1825,0.2248016745
1824,0.2245801687
1823,0.2245574147
1822,0.2244671732
1821,0.2246646136
1820,0.2246254534
1819,0.2242698073
1818,0.2240582258
1817,0.2238981128
1816,0.2239638418
1815,0.2237878144
1814,0.2236056179
1813,0.2233732343
1812,0.2233068347
1811,0.223169893
1810,0.2230592966
1809,0.2228928506
1808,0.2225886285
1807,0.2225446254
1806,0.2222810239
1805,0.2219932377
1804,0.2217647433
1803,0.2215961963
1802,0.2214039415
1801,0.221258983
1800,0.2209278196
1799,0.2208258957
1798,0.2206075937
1797,0.2203080654
1796,0.2200156897
1795,0.2197672725
1794,0.2195214927
1793,0.2193822563
1792,0.2190901786
1791,0.2188060731
1790,0.218419522
1789,0.2183212042
1788,0.2181141675
1787,0.2177572846
1786,0.2174117118
1785,0.2171365619
1784,0.2168380916
1783,0.2165127695
1782,0.216356352
1781,0.2160287946
1780,0.2157129496
1779,0.2154147029
1778,0.2150688916
1777,0.2148387432
1776,0.2144863605
1775,0.2141721547
1774,0.2139759511
1773,0.2135400772
1772,0.2131928802
1771,0.2130417526
1770,0.2125122696
1769,0.2122858614
1768,0.2119226009
1767,0.2117052823
1766,0.2112247348
1765,0.2110310197
1764,0.2107000947
1763,0.2103824019
1762,0.2101197243
1761,0.2097341418
1760,0.2094965726
1759,0.2090361267
1758,0.2087917328
1757,0.2084483653
1756,0.2081163824
1755,0.2078215033
1754,0.2074252218
1753,0.2072269022
1752,0.2068598866
1751,0.2064757347
1750,0.2061346024
1749,0.2058624774
1748,0.205441311
1747,0.2052180171
1746,0.2047940791
1745,0.2044871002
1744,0.2041734606
1743,0.20375669
1742,0.2034753412
1741,0.2031686306
1740,0.2028569728
1739,0.2025658041
1738,0.2021570057
1737,0.2018012553
1736,0.2015173286
1735,0.2012042999
1734,0.2008193582
1733,0.200415656
1732,0.2001375258
1731,0.1997515559
1730,0.1993416846
1729,0.1990204304
1728,0.1986596733
1727,0.1982831359
1726,0.1980286241
1725,0.1975535005
1724,0.1972369254
1723,0.1968666017
1722,0.1964983791
1721,0.1962089092
1720,0.1957944036
1719,0.195359543
1718,0.1950270683
1717,0.1946014464
1716,0.1941993088
1715,0.1939408332
1714,0.1934455037
1713,0.1930931211
1712,0.1928007603
1711,0.1923371553
1710,0.1919711828
1709,0.1916137338
1708,0.1911556274
1707,0.1908295304
1706,0.1904076338
1705,0.1899625808
1704,0.1895863414
1703,0.1891222745
1702,0.1887383014
1701,0.1883887947
1700,0.1879798472
1699,0.1875288188
1698,0.1870938689
1697,0.1866983473
1696,0.1863682568
1695,0.1859067529
1694,0.1854738891
1693,0.1850530803
1692,0.1846482456
1691,0.1842732579
1690,0.1839618236
1689,0.1833946556
1688,0.1829988956
1687,0.1825931966
1686,0.1821607202
1685,0.1817326844
1684,0.1813602448
1683,0.1808721423
1682,0.1805133522
1681,0.1801036298
1680,0.1796864718
1679,0.1791893244
1678,0.1788434833
1677,0.1784069091
1676,0.1779519171
1675,0.1775999665
1674,0.1772231013
1673,0.176828891
1672,0.1763972044
1671,0.1760443449
1670,0.1756262034
1669,0.1752416044
1668,0.1747614145
1667,0.1744463891
1666,0.1739706695
1665,0.1736389548
1664,0.1732087433
1663,0.1728199124
1662,0.172393322
1661,0.1719342917
1660,0.1716041714
1659,0.1711666733
1658,0.1708185673
1657,0.1703418195
1656,0.1699048281
1655,0.1696256697
1654,0.1692447811
1653,0.1687458456
1652,0.1683953255
1651,0.1680583507
1650,0.1676289141
1649,0.1671640128
1648,0.1667190045
1647,0.1664037108
1646,0.1659984291
1645,0.165592432
1644,0.1652307659
1643,0.1647814512
1642,0.1644245535
1641,0.1640798748
1640,0.1636030376
1639,0.1631816626
1638,0.1629221588
1637,0.1625398993
1636,0.1620538086
1635,0.1617210805
1634,0.1613194644
1633,0.1608940065
1632,0.1604923755
1631,0.1601834446
1630,0.1597635746
1629,0.1593851447
1628,0.1590497047
1627,0.1586667448
1626,0.158338055
1625,0.1580325216
1624,0.1576513052
1623,0.1572116166
1622,0.1568791568
1621,0.1565741301
1620,0.1562166661
1619,0.1557914317
1618,0.1554546505
1617,0.1550508738
1616,0.154735744
1615,0.1544613093
1614,0.154059723
1613,0.1536663026
1612,0.1533710361
1611,0.1530514508
1610,0.1527905613
1609,0.1524004638
1608,0.1520964652
1607,0.151807189
1606,0.1514369696
1605,0.1511144042
1604,0.1509297937
1603,0.1505660713
1602,0.150229007
1601,0.1499304771
1600,0.1496796012
1599,0.1494293213
1598,0.1491360366
1597,0.1487977803
1596,0.1485813856
1595,0.1482565254
1594,0.1480288506
1593,0.1477659494
1592,0.1475195587
1591,0.1471861601
1590,0.1469646394
1589,0.146817714
1588,0.1465389282
1587,0.1462139934
1586,0.1460565627
1585,0.1457800418
1584,0.1455399096
1583,0.1452879608
1582,0.1451443136
1581,0.1449410766
1580,0.1446576416
1579,0.1444796771
1578,0.1441941708
1577,0.1439987272
1576,0.1438084394
1575,0.1436492801
1574,0.1434756666
1573,0.143284291
1572,0.1430369914
1571,0.1428370774
1570,0.1426568776
1569,0.1424905211
1568,0.1423222572
1567,0.1421310455
1566,0.1420016885
1565,0.1417907327
1564,0.1415997446
1563,0.1414142996
1562,0.1412898153
1561,0.1411430389
1560,0.1409650445
1559,0.1407972723
1558,0.1406223178
1557,0.1404848993
1556,0.1403331459
1555,0.1401150525
1554,0.1400439441
1553,0.1399213821
1552,0.1397238225
1551,0.1395887882
1550,0.1394770294
1549,0.1392982602
1548,0.1392215043
1547,0.13907592
1546,0.1389058679
1545,0.1388091147
1544,0.1386958063
1543,0.1385238171
1542,0.1384096146
1541,0.1382497996
1540,0.1382215768
1539,0.1381088942
1538,0.137996763
1537,0.137877658
1536,0.1377185732
1535,0.1376653612
1534,0.137550503
1533,0.1374915987
1532,0.137334317
1531,0.1372076869
1530,0.1371049583
1529,0.1370562166
1528,0.1369550824
1527,0.1368622333
1526,0.1367203146
1525,0.136653021
1524,0.1365848333
1523,0.1364545971
1522,0.1363675594
1521,0.1363508403
1520,0.1362246126
1519,0.1361188889
1518,0.136109814
1517,0.1359932423
1516,0.1358586997
1515,0.1357892901
1514,0.1357198358
1513,0.1357067078
1512,0.1355972141
1511,0.1354983598
1510,0.1353997439
1509,0.1353743225
1508,0.1353047192
1507,0.1352058202
1506,0.135154441
1505,0.1350933909
1504,0.1349975467
1503,0.1350173652
1502,0.1349117905
1501,0.1348363608
1500,0.1347670853
1499,0.1347255707
1498,0.1347143799
1497,0.1346662343
1496,0.1346080303
1495,0.1344648451
1494,0.1344582438
1493,0.1344089657
1492,0.1343693882
1491,0.1343494207
1490,0.1342458129
1489,0.1342239827
1488,0.1342250407
1487,0.134161368
1486,0.1341230422
1485,0.1339686364
1484,0.1339816749
1483,0.1339386702
1482,0.1339087188
1481,0.133867532
1480,0.1338238865
1479,0.133792147
1478,0.1337167323
1477,0.1337059289
1476,0.1336386949
1475,0.1336142272
1474,0.1335353553
1473,0.133551985
1472,0.1335262358
1471,0.1334756166
1470,0.1334311366
1469,0.1333835125
1468,0.1333664507
1467,0.1333520561
1466,0.1332488954
1465,0.1332243383
1464,0.1332260519
1463,0.1332346797
1462,0.133189857
1461,0.1330820173
1460,0.1330394
1459,0.1330763251
1458,0.1329979151
1457,0.1330133379
1456,0.1330063492
1455,0.1329452097
1454,0.1329282224
1453,0.1328451186
1452,0.1328286827
1451,0.1328350008
1450,0.1328143328
1449,0.1327406764
1448,0.1327841133
1447,0.1327102482
1446,0.1326763034
1445,0.1326783001
1444,0.1326523423
1443,0.1326074153
1442,0.1326209009
1441,0.132546708
1440,0.1325366646
1439,0.1324836314
1438,0.1324598938
1437,0.1325037479
1436,0.1324552596
1435,0.1323691607
1434,0.1323254108
1433,0.1323353797
1432,0.1323245019
1431,0.1323433816
1430,0.1322482526
1429,0.1321847886
1428,0.1322746426
1427,0.132220313
1426,0.1321856678
1425,0.1321279854
1424,0.1321077347
1423,0.1320914477
1422,0.1320660859
1421,0.1320252866
1420,0.1320239902
1419,0.1320160478
1418,0.1319633275
1417,0.1319835335
1416,0.1319176555
1415,0.1319852918
1414,0.1318511665
1413,0.1318515539
1412,0.1318317801
1411,0.1317583174
1410,0.1317082942
1409,0.1317822933
1408,0.1317538619
1407,0.1317482144
1406,0.1317090988
1405,0.1316721439
1404,0.1316856742
1403,0.1315748096
1402,0.1316042542
1401,0.1316721439
1400,0.1317118257
1399,0.131620869
1398,0.1314518899
1397,0.1314253956
1396,0.1315525919
1395,0.1315731257
1394,0.1314397007
1393,0.1313852519
1392,0.13148202
1391,0.1313800663
1390,0.1312943548
1389,0.1312937587
1388,0.1312788427
1387,0.1312081069
1386,0.1312601715
1385,0.1311427653
1384,0.1312210262
1383,0.13132599
1382,0.1313549578
1381,0.1312995702
1380,0.131221205
1379,0.1311869472
1378,0.1311976314
1377,0.1312071234
1376,0.1311248094
1375,0.1310603917
1374,0.1310265809
1373,0.1309314519
1372,0.1309554577
1371,0.1309099644
1370,0.130892083
1369,0.1308254749
1368,0.1308548301
1367,0.1308300197
1366,0.1307775825
1365,0.130733043
1364,0.1307677478
1363,0.1306851357
1362,0.1308799088
1361,0.130886808
1360,0.130741477
1359,0.1306480616
1358,0.1306230277
1357,0.1306232959
1356,0.1306364089
1355,0.1305843145
1354,0.1305931211
1353,0.1306299418
1352,0.1305322498
1351,0.1305864155
1350,0.1305907071
1349,0.1305339932
1348,0.1305599064
1347,0.1304984093
1346,0.1305362731
1345,0.1305158883
1344,0.1305072159
1343,0.1304692179
1342,0.1305140406
1341,0.1304980665
1340,0.1305181682
1339,0.1305193454
1338,0.1305170506
1337,0.1305335164
1336,0.1305174977
1335,0.1305442154
1334,0.1305192411
1333,0.1305425018
1332,0.13053523
1331,0.1305076778
1330,0.13058348
1329,0.1305640638
1328,0.1305351257
1327,0.1305815876
1326,0.130561024
1325,0.1306036115
1324,0.1306042075
1323,0.1305675954
1322,0.1306201965
1321,0.130669564
1320,0.1306823343
1319,0.1307049692
1318,0.1307020932
1317,0.1306795329
1316,0.1307639331
1315,0.1307991594
1314,0.1307688057
1313,0.1308299154
1312,0.1308025569
1311,0.1308974773
1310,0.1308833063
1309,0.1309608817
1308,0.1309149116
1307,0.1309512258
1306,0.1310057491
1305,0.1311062127
1304,0.1310939938
1303,0.1311228424
1302,0.1311286241
1301,0.1312085241
1300,0.1312589198
1299,0.1312991232
1298,0.1313535869
1297,0.1313830167
1296,0.1314199716
1295,0.1315060258
1294,0.1315327585
1293,0.1315770149
1292,0.1316827387
1291,0.131697908
1290,0.131756559
1289,0.1318814307
1288,0.1318113655
1287,0.1319194138
1286,0.1319371611
1285,0.1320462972
1284,0.1321523637
1283,0.132215932
1282,0.1322390139
1281,0.1323842108
1280,0.1324078143
1279,0.1324920952
1278,0.1325462461
1277,0.1326393038
1276,0.1326957643
1275,0.1327807754
1274,0.1328921169
1273,0.1329488307
1272,0.1331206411
1271,0.1331517994
1270,0.1332638711
1269,0.1333796084
1268,0.1334692836
1267,0.1335478574
1266,0.1336915642
1265,0.1337762922
1264,0.1339163035
1263,0.1340008676
1262,0.1340905726
1261,0.1341971159
1260,0.134356156
1259,0.1345003992
1258,0.1346001923
1257,0.1347136348
1256,0.1348228008
1255,0.1350187361
1254,0.1351092905
1253,0.1352202147
1252,0.1353726238
1251,0.1354985386
1250,0.135628134
1249,0.1357759982
1248,0.1359368563
1247,0.1360635012
1246,0.1362148374
1245,0.1363788694
1244,0.136532262
1243,0.1366782337
1242,0.1368599981
1241,0.1370072514
1240,0.1371476203
1239,0.1372974813
1238,0.1375014782
1237,0.1376581788
1236,0.1377978474
1235,0.1379253864
1234,0.1381348968
1233,0.138340801
1232,0.1385092437
1231,0.1386587322
1230,0.1388382614
1229,0.1390736103
1228,0.1392560601
1227,0.1395026594
1226,0.1395851076
1225,0.1397701055
1224,0.1400298625
1223,0.1402121484
1222,0.1404562443
1221,0.1405823231
1220,0.140843913
1219,0.141047284
1218,0.141291067
1217,0.1415133178
1216,0.1417381316
1215,0.141939342
1214,0.1421678513
1213,0.1424504966
1212,0.142700091
1211,0.1429329664
1210,0.1431553513
1209,0.1434327364
1208,0.1436851323
1207,0.1439393014
1206,0.1442068368
1205,0.1444826424
1204,0.1447111666
1203,0.1449583173
1202,0.1452824175
1201,0.1455609053
1200,0.1458125561
1199,0.1459061503
1198,0.1462362856
1197,0.1464595348
1196,0.1467663199
1195,0.1470722407
1194,0.1473916769
1193,0.1477433294
1192,0.1479919851
1191,0.1482370347
1190,0.1485588998
1189,0.1488896757
1188,0.1492064446
1187,0.1494925022
1186,0.1498018056
1185,0.1500917971
1184,0.1504360437
1183,0.1507537216
1182,0.1510710716
1181,0.1513736248
1180,0.151688084
1179,0.1520327181
1178,0.1523307562
1177,0.1527014077
1176,0.1530049741
1175,0.1532993019
1174,0.1536227614
1173,0.1539776027
1172,0.1542819589
1171,0.1545829177
1170,0.154921934
1169,0.1552756578
1168,0.1555724889
1167,0.1559381187
1166,0.1562375575
1165,0.1565267146
1164,0.1568830907
1163,0.1572228819
1162,0.1575117409
1161,0.1578251719
1160,0.1581933051
1159,0.1585258842
1158,0.1588996053
1157,0.1592217088
1156,0.1595362276
1155,0.1598837078
1154,0.16021882
1153,0.1605964452
1152,0.1609452218
1151,0.161311999
1150,0.1616739035
1149,0.1620015949
1148,0.1623945385
1147,0.1627672166
1146,0.1631816924
1145,0.1635840982
1144,0.1640052944
1143,0.1644435674
1142,0.1648555994
1141,0.1652956456
1140,0.165674299
1139,0.1661868691
1138,0.1666563451
1137,0.1671002209
1136,0.1675546616
1135,0.1680546999
1134,0.1685939729
1133,0.1690794677
1132,0.1696250588
1131,0.1701074541
1130,0.1705982834
1129,0.1711562723
1128,0.1716921926
1127,0.1722238809
1126,0.1727879196
1125,0.1733524799
1124,0.173881188
1123,0.1744767576
1122,0.1750407964
1121,0.175573498
1120,0.176157102
1119,0.1767683625
1118,0.1772993803
1117,0.1778592616
1116,0.1784664094
1115,0.1789762527
1114,0.1795603037
1113,0.1801217347
1112,0.180692181
1111,0.1812271476
1110,0.1817828119
1109,0.1822605133
1108,0.1827888638
1107,0.1833769977
1106,0.1838789582
1105,0.1843426377
1104,0.1847965866
1103,0.185320735
1102,0.1857834905
1101,0.1862573922
1100,0.1866384596
1099,0.1871028692
1098,0.187482819
1097,0.1878923774
1096,0.1882139146
1095,0.1885512471
1094,0.1888815165
1093,0.1892368495
1092,0.1895671189
1091,0.189802289
1090,0.1900155693
1089,0.1903201491
1088,0.1905985773
1087,0.1907924116
1086,0.1910015643
1085,0.1911865771
1084,0.1913821995
1083,0.1916016191
1082,0.1918184459
1081,0.1919933408
1080,0.1920883656
1079,0.1922679991
1078,0.1924593896
1077,0.1926085651
1076,0.192796275
1075,0.1929316074
1074,0.1931095272
1073,0.1933363527
1072,0.1935129911
1071,0.1937689185
1070,0.1939432472
1069,0.1940813959
1068,0.1943102032
1067,0.1946017295
1066,0.1948709041
1065,0.1950370818
1064,0.1952883005
1063,0.1956179291
1062,0.1959127337
1061,0.1962010562
1060,0.1964829117
1059,0.1968088001
1058,0.1970613748
1057,0.1974862367
1056,0.197842598
1055,0.1981819719
1054,0.1985358894
1053,0.1989108324
1052,0.199250266
1051,0.1996662468
1050,0.2001180798
1049,0.2004538178
1048,0.2008226514
1047,0.2012295723
1046,0.2015205771
1045,0.2019611597
1044,0.202351287
1043,0.2026385218
1042,0.203032732
1041,0.2033565044
1040,0.2036523819
1039,0.2039445341
1038,0.2042693645
1037,0.2045993209
1036,0.2048793733
1035,0.2051108629
1034,0.2053094655
1033,0.205512017
1032,0.2057066411
1031,0.2058788538
1030,0.2060135752
1029,0.2061537057
1028,0.2062223256
1027,0.2063010782
1026,0.2064195126
1025,0.2064917982
1024,0.2063976079
1023,0.2064666897
1022,0.2064874321
1021,0.2064625323
1020,0.2062940449
1019,0.2062857151
1018,0.2061522901
1017,0.2060989887
1016,0.2059431076
1015,0.2058471292
1014,0.205702275
1013,0.2054597139
1012,0.2053619623
1011,0.2051924914
1010,0.2050222903
1009,0.204776451
1008,0.2045084089
1007,0.2043659538
1006,0.2041629702
1005,0.2039657682
1004,0.2037165612
1003,0.2033778727
1002,0.2031539977
1001,0.202873528
1000,0.202638939
999,0.2023677528
998,0.2020199448
997,0.2017537504
996,0.2014663219
995,0.2011986226
994,0.2008126229
993,0.2004934847
992,0.2000518888
991,0.1997485608
990,0.1994250119
989,0.1990445107
988,0.1987310052
987,0.1983448565
986,0.1979768127
985,0.1976310313
984,0.197262153
983,0.1969394237
982,0.1964821815
981,0.1961637735
980,0.1957481205
979,0.1954209507
978,0.19507882
977,0.1946647763
976,0.1944270432
975,0.1940477341
974,0.1937382966
973,0.1934149861
972,0.1930383742
971,0.1926364303
970,0.1924372166
969,0.1920765638
968,0.1917437017
967,0.1915435642
966,0.1913077235
965,0.1909446269
964,0.1906775087
963,0.1903737187
962,0.1901404411
961,0.1897986382
960,0.1895846128
959,0.1893384308
958,0.1889621764
957,0.1886238605
956,0.1883479804
955,0.1880843788
954,0.1877602637
953,0.1874521226
952,0.1871005595
951,0.1867650002
950,0.1865268946
949,0.1861240566
948,0.1858654022
947,0.1854714006
946,0.1850876957
945,0.1848158389
944,0.1843493581
943,0.1839459687
942,0.1835107207
941,0.1830946952
940,0.1828415096
939,0.1825566292
938,0.1822102219
937,0.1816791892
936,0.18135719
935,0.180990532
934,0.1805615276
933,0.1801926345
932,0.179701224
931,0.1795152128
930,0.1789614707
929,0.1786166281
928,0.1781868041
927,0.1779609174
926,0.1775027961
925,0.1771211624
924,0.1767871082
923,0.1761966795
922,0.1759681404
921,0.1755474359
920,0.175017789
919,0.1746810228
918,0.1744197309
917,0.1738207638
916,0.1732832193
915,0.1730065942
914,0.1727502793
913,0.1721693426
912,0.1718904525
911,0.1714409888
910,0.1711911708
909,0.1706579477
908,0.1702835113
907,0.1700830609
906,0.1697387248
905,0.1692365557
904,0.1688212156
903,0.1685624421
902,0.1682119519
901,0.1677408069
900,0.1673990041
899,0.1670994312
898,0.1668037027
897,0.1665212512
896,0.1726136655
895,0.1680352986
894,0.1657971889
893,0.1656478494
892,0.1676901877
891,0.16468741
890,0.1673073322
889,0.1685730964
888,0.1696640849
887,0.1671506613
886,0.169724375
885,0.1646157503
884,0.1658744663
883,0.1652524322
882,0.1686486155
881,0.1653189808
880,0.1655878872
879,0.1617213339
878,0.1627203375
877,0.1631371826
876,0.1613463312
875,0.1593886912
874,0.1652096063
873,0.1625508964
872,0.1627950817
871,0.1649522483
870,0.1631761193
869,0.1613898724
868,0.1600815207
867,0.160005942
866,0.1602377146
865,0.159835279
864,0.1615458727
863,0.1589949727
862,0.1596197039
861,0.1601576209
860,0.159725666
859,0.1593518108
858,0.1606458277
857,0.1596104354
856,0.1592137963
855,0.1583146453
854,0.1595728248
853,0.1591435373
852,0.1593133807
851,0.1588739306
850,0.1595112234
849,0.1590825617
848,0.159805879
847,0.1596958637
846,0.1577539593
845,0.1591336876
844,0.1582079977
843,0.1589144617
842,0.1582571864
841,0.1587488949
840,0.1585388184
839,0.1578056663
838,0.1590867788
837,0.1581891775
836,0.1584614068
835,0.1576521993
834,0.1580916345
833,0.1583219171
832,0.1583860666
831,0.1582778692
830,0.1588785201
829,0.158604607
828,0.1589023322
827,0.1583127826
826,0.1595149636
825,0.1589494348
824,0.158938691
823,0.1593750119
822,0.1596596241
821,0.1595195979
820,0.1599808335
819,0.1600137502
818,0.1604736
817,0.1603959203
816,0.1604903042
815,0.1605145037
814,0.1609889865
813,0.1606266052
812,0.1612901986
811,0.1616300642
810,0.1616874188
809,0.1618848145
808,0.1622098833
807,0.1622162014
806,0.1623761058
805,0.1627555043
804,0.1631254703
803,0.1630726308
802,0.1636598557
801,0.1634811461
800,0.1639014184
799,0.1642694026
798,0.1643941253
797,0.165015161
796,0.164890334
795,0.1654920727
794,0.1653416008
793,0.1656362414
792,0.1660290509
791,0.166384846
790,0.1665171534
789,0.1666570306
788,0.1667814404
787,0.1674298793
786,0.1672542542
785,0.1675814986
784,0.1677403003
783,0.1679480523
782,0.1680684239
781,0.168674618
780,0.1688934267
779,0.16912359
778,0.1695506573
777,0.1695829034
776,0.169794336
775,0.1701640189
774,0.1704880744
773,0.1709960699
772,0.1715082228
771,0.1717664599
770,0.1721806228
769,0.1726535708
768,0.1725826561
767,0.1736654341
766,0.173699379
765,0.1743181795
764,0.1749926507
763,0.1756372601
762,0.175775677
761,0.1765120775
760,0.1774078757
759,0.1777096242
758,0.1779889166
757,0.1786631495
756,0.1792117804
755,0.1798536777
754,0.1801277697
753,0.1805184484
752,0.1809272319
751,0.1814879626
750,0.1822319925
749,0.182648465
748,0.1829051226
747,0.1833266914
746,0.1836829633
745,0.1837663054
744,0.1841609031
743,0.1843317449
742,0.1848580241
741,0.184787631
740,0.1851243228
739,0.1851790398
738,0.1851878464
737,0.1853471845
736,0.1855369508
735,0.1855280995
734,0.1855227798
733,0.1853636056
732,0.1857109964
731,0.1856895089
730,0.1858574301
729,0.1860199124
728,0.1859141737
727,0.186000213
726,0.1860910356
725,0.1861928403
724,0.1864346564
723,0.1863102913
722,0.18634516
721,0.186787039
720,0.1868221015
719,0.1870230585
718,0.1871802956
717,0.1873976737
716,0.1874629259
715,0.1875334829
714,0.1878337711
713,0.1880727261
712,0.1884111762
711,0.1886297315
710,0.1887948662
709,0.1888195276
708,0.1890457869
707,0.1892625839
706,0.1894235462
705,0.1893484443
704,0.1894318014
703,0.1894857287
702,0.1896825582
701,0.1894684732
700,0.1897031069
699,0.1895321161
698,0.1896657795
697,0.1894857287
696,0.1893911511
695,0.1893089265
694,0.1890484244
693,0.1890481859
692,0.1890133023
691,0.1887874305
690,0.1884070933
689,0.188448444
688,0.1882581264
687,0.1879929304
686,0.1878028512
685,0.1879888326
684,0.1875191629
683,0.1874677539
682,0.1871166825
681,0.186975643
680,0.1867575198
679,0.186760664
678,0.1864343882
677,0.1863726377
676,0.1863963753
675,0.1861316413
674,0.1858345568
673,0.1857560873
672,0.1853733212
671,0.1852218658
670,0.1849017292
669,0.1849774271
668,0.1846057624
667,0.1843690723
666,0.1842889339
665,0.1840630621
664,0.1839447021
663,0.1838063449
662,0.183588177
661,0.1834866256
660,0.1834205091
659,0.1833079904
658,0.1831164658
657,0.1829201877
656,0.1829983741
655,0.1827901602
654,0.1825904101
653,0.1825398803
652,0.1823167205
651,0.1822817773
650,0.1822111309
649,0.1819683015
648,0.1818528026
647,0.1818370968
646,0.181615755
645,0.1815360039
644,0.1814234108
643,0.1813852489
642,0.181187436
641,0.1807795465
640,0.1806127578
639,0.1806720495
638,0.1805258244
637,0.1803302467
636,0.1802704185
635,0.1800527722
634,0.1799465865
633,0.179754436
632,0.1795888692
631,0.1796127111
630,0.1795128286
629,0.1793556362
628,0.1792255342
627,0.1790810078
626,0.1789941937
625,0.1789122224
624,0.1788822562
623,0.1787797213
622,0.1788124591
621,0.1786313951
620,0.1785811782
619,0.1785880029
618,0.1785459816
617,0.1786077619
616,0.1784428358
615,0.1787376404
614,0.1785484105
613,0.1786414683
612,0.1786762774
611,0.1787532717
610,0.1788430959
609,0.1788874865
608,0.1791532785
607,0.1791742295
606,0.1793674529
605,0.1794737279
604,0.1797466874
603,0.1798515618
602,0.1802147478
601,0.180596441
600,0.180595696
599,0.1809659898
598,0.1812749654
597,0.1813946068
596,0.1817225814
595,0.1818768382
594,0.1822459847
593,0.1824454665
592,0.1827073991
591,0.1827469468
590,0.1831145436
589,0.1832102388
588,0.1833695769
587,0.1835138798
586,0.1835537702
585,0.1837249249
584,0.1838131398
583,0.1838550419
582,0.1838657111
581,0.1838892698
580,0.1839742362
579,0.1840993166
578,0.1842901558
577,0.1844638288
576,0.184483856
575,0.1848149598
574,0.1851534247
573,0.1854149848
572,0.1856267899
571,0.1860470474
570,0.1864926368
569,0.1867851764
568,0.1873712242
567,0.1878123134
566,0.1884289086
565,0.1886263788
564,0.1891690195
563,0.1896095276
562,0.1901766211
561,0.1907671094
560,0.1912104934
559,0.1914627254
558,0.1920017153
557,0.1922486573
556,0.1924277842
555,0.1926457584
554,0.1929614693
553,0.192840904
552,0.1930819005
551,0.1926307082
550,0.1923981458
549,0.1926645488
548,0.192465201
547,0.1922309548
546,0.1919767857
545,0.1919638515
544,0.1918662488
543,0.1916182041
542,0.1915749013
541,0.1915392131
540,0.1916616708
539,0.191660136
538,0.1920947284
537,0.1921041906
536,0.1923935562
535,0.1928801835
534,0.1931177229
533,0.193607986
532,0.1938280016
531,0.1944958568
530,0.1948329061
529,0.1953173727
528,0.1956340969
527,0.196072042
526,0.1964801848
525,0.1966995001
524,0.1972974986
523,0.1970987469
522,0.1974561363
521,0.1975884289
520,0.1977692544
519,0.1979614943
518,0.19786717
517,0.1978705227
516,0.1980849504
515,0.1980521083
514,0.1980217695
513,0.1981294006
512,0.1983315647
511,0.1983557194
510,0.1984571815
509,0.1988385171
508,0.1990429461
507,0.1992050856
506,0.1993944943
505,0.2001670301
504,0.2003643364
503,0.2008749843
502,0.2015747726
501,0.2018732727
500,0.2024762928
499,0.2030960619
498,0.203700006
497,0.2043706328
496,0.204874143
495,0.2054054886
494,0.2058458775
493,0.2059687674
492,0.2061412632
491,0.2062035054
490,0.2064345926
489,0.2061581463
488,0.2057210654
487,0.2055677027
486,0.2051087916
485,0.2046915442
484,0.2045774311
483,0.2041704357
482,0.2039934695
481,0.2038776726
480,0.2038133144
479,0.2037594318
478,0.2040524334
477,0.2041621506
476,0.2045455128
475,0.2050109208
474,0.2053735107
473,0.2060394138
472,0.2067312002
471,0.2072784305
470,0.2077401727
469,0.2082165033
468,0.2088570595
467,0.2090856135
466,0.2094204277
465,0.2093269378
464,0.2092534602
463,0.2089098543
462,0.2089749724
461,0.2084456831
460,0.2080745399
459,0.2076315582
458,0.2074147016
457,0.2070146352
456,0.2068894804
455,0.2068966925
454,0.2066017538
453,0.2070770115
452,0.2072229385
451,0.2072395086
450,0.2076731473
449,0.2081338167
448,0.2084361464
447,0.2089578956
446,0.2093784958
445,0.2097770721
444,0.2103299648
443,0.2107032835
442,0.2113683522
441,0.2115178108
440,0.212068662
439,0.2120859921
438,0.212144345
437,0.2125453353
436,0.2127411515
435,0.2128496915
434,0.2131409943
433,0.2137154639
432,0.213796258
431,0.2140946388
430,0.2142614722
429,0.2144835144
428,0.2156051844
427,0.2157692313
426,0.2161785662
425,0.2166108787
424,0.2172825933
423,0.2178554237
422,0.218438223
421,0.2185785621
420,0.218939513
419,0.2190068364
418,0.2190920115
417,0.2192922682
416,0.2192813754
415,0.2195130289
414,0.219362393
413,0.2196674645
412,0.2201277912
411,0.2202741802
410,0.2206785828
409,0.2210986018
408,0.2217992991
407,0.2224208862
406,0.2231531441
405,0.2233914286
404,0.2243771106
403,0.2250859886
402,0.2254830152
401,0.226250127
400,0.226765722
399,0.2277530283
398,0.2280185223
397,0.2283349335
396,0.2282656729
395,0.2287048399
394,0.2287509441
393,0.2293914407
392,0.2295446843
391,0.2299129367
390,0.230083853
389,0.2307883203
388,0.2311165482
387,0.2317262143
386,0.2323369086
385,0.2329048216
384,0.2334129512
383,0.2341328859
382,0.2348119467
381,0.2354766428
380,0.2361470312
379,0.2368808389
378,0.2381779999
377,0.2388248444
376,0.2395924181
375,0.2403882593
374,0.2408040017
373,0.2424683422
372,0.2431901693
371,0.2437985688
370,0.2446062565
369,0.2453301549
368,0.2455371767
367,0.246008411
366,0.2465506196
365,0.2472732365
364,0.2476414442
363,0.2477609515
362,0.2485408783
361,0.2487513721
360,0.2504728138
359,0.2510874569
358,0.251994729
357,0.2529788613
356,0.2546741664
355,0.2558656633
354,0.2567237318
353,0.2580998242
352,0.2592170835
351,0.2601440549
350,0.2609512806
349,0.2589564621
348,0.2597218454
347,0.2610378265
346,0.2615894377
345,0.2628275156
344,0.2641961873
343,0.2638711333
342,0.2651571929
341,0.2666501105
340,0.2677459717
339,0.2686303556
338,0.2691711187
337,0.2713514268
336,0.2726254463
335,0.2740259767
334,0.2738863826
333,0.2759225368
332,0.2766967416
331,0.2779881358
330,0.279334873
329,0.2806759477
328,0.281680733
327,0.2825164199
326,0.2836307883
325,0.2856845856
324,0.2861557901
323,0.2882197201
322,0.2895289361
321,0.2929500341
320,0.2936631441
319,0.2956027687
318,0.2969026864
317,0.2989928424
316,0.3002883196
315,0.3019451797
314,0.3047625124
313,0.3064804077
312,0.3083991706
311,0.3098396063
310,0.3121363223
309,0.3141469061
308,0.3157537282
307,0.3187955022
306,0.3208210468
305,0.323820591
304,0.3261802793
303,0.3280793726
302,0.3306989074
301,0.3329424858
300,0.3353540897
299,0.337602675
298,0.3402863145
297,0.3423398435
296,0.3448497653
295,0.34745574
294,0.3506729007
293,0.3529317081
292,0.3559153676
291,0.3587484062
290,0.3612131178
289,0.3639574647
288,0.3664018512
287,0.3695343137
286,0.3717311919
285,0.3738419414
284,0.3763901889
283,0.3788450956
282,0.3810492456
281,0.3825824559
280,0.3851877153
279,0.3865757883
278,0.3882861137
277,0.3904858828
276,0.3911691904
275,0.3924710453
274,0.3933261037
273,0.394443661
272,0.3944446445
271,0.3947886527
270,0.3951406777
269,0.3949418366
268,0.3951799273
267,0.3944361508
266,0.3937791288
265,0.3932713866
264,0.3929286003
263,0.3915182948
262,0.3906850219
261,0.3893586695
260,0.3878712356
259,0.3861351311
258,0.3850329816
257,0.3828610778
256,0.3818681836
255,0.3800328076
254,0.3778030872
253,0.3749924898
252,0.3729512691
251,0.3704919815
250,0.367778182
249,0.3644904196
248,0.3613259196
247,0.357798785
246,0.3541229069
245,0.3504017889
244,0.3461635709
243,0.3423571289
242,0.3386474848
241,0.3351437151
240,0.3310224414
239,0.3272592127
238,0.3237021267
237,0.3207364082
236,0.3173104525
235,0.3148024976
234,0.3118596971
233,0.3093931079
232,0.3072928488
231,0.3049133122
230,0.3036583066
229,0.3020901382
228,0.3005278409
227,0.3001720607
226,0.2999830246
225,0.3003910184
224,0.3030250669
223,0.3063260615
222,0.3120443821
221,0.3191418946
220,0.3297460675
219,0.3427966237
218,0.3581078053
217,0.3762896955
216,0.3960967958
215,0.4185380936
214,0.4414924681
213,0.4651253521
212,0.4887115359
211,0.5107030869
210,0.5301140547
209,0.5469766259
208,0.5601717234
207,0.5693514347
206,0.5763002038
205,0.5781089067
204,0.5776166916
203,0.5745996237
202,0.5681070089
201,0.5586723089
200,0.5475441813
