Dodecane_KIT_Temp_50_B
Wavelength (nm),Abs
2655,0.08052553982
2654,0.07872679085
2653,0.0786639899
2652,0.07853354514
2651,0.07987495512
2650,0.08012928069
2649,0.07980670035
2648,0.08008268476
2647,0.08074785769
2646,0.07895772159
2645,0.0805920437
2644,0.08059278876
2643,0.08030888438
2642,0.07865105569
2641,0.07995454967
2640,0.08078062534
2639,0.08041752875
2638,0.07986088842
2637,0.0806357041
2636,0.07930030674
2635,0.07983917743
2634,0.08012869209
2633,0.07891549915
2632,0.07789129019
2631,0.07337576151
2630,0.07940891385
2629,0.08055552095
2628,0.07922959328
2627,0.07968056947
2626,0.08128715307
2625,0.08009538054
2624,0.07994063944
2623,0.08063433319
2622,0.07931829989
2621,0.07559759915
2620,0.07906540483
2619,0.08162496239
2618,0.07664809376
2617,0.07890857756
2616,0.08063100278
2615,0.0799370259
2614,0.08137762547
2613,0.08026771247
2612,0.07967323065
2611,0.07996989042
2610,0.08090504259
2609,0.08119598776
2608,0.08012700826
2607,0.07911845297
2606,0.07460207492
2605,0.0780910328
2604,0.07784353197
2603,0.0793152526
2602,0.07955513895
2601,0.08086107671
2600,0.08125903457
2599,0.08069103211
2598,0.08087095618
2597,0.07866476476
2596,0.07409051061
2595,0.07629226148
2594,0.08253470063
2593,0.0826119706
2592,0.081690602
2591,0.0799851343
2590,0.07949572802
2589,0.07954951376
2588,0.08307659626
2587,0.08169034868
2586,0.07976196706
2585,0.07765179127
2584,0.08076176792
2583,0.08064711094
2582,0.08007004112
2581,0.08170772344
2580,0.0816950351
2579,0.08121009171
2578,0.08098875731
2577,0.08114933223
2576,0.08115123957
2575,0.080111444
2574,0.0795853585
2573,0.08067902923
2572,0.08085146546
2571,0.07951817662
2570,0.0788731575
2569,0.08038513362
2568,0.08119146526
2567,0.08125504106
2566,0.08036298305
2565,0.07940440625
2564,0.07906515896
2563,0.07856816053
2562,0.07826933265
2561,0.0811739862
2560,0.08168294281
2559,0.08162399381
2558,0.08191179484
2557,0.08157794923
2556,0.08154940605
2555,0.08089101315
2554,0.08033946902
2553,0.08045609295
2552,0.08106771111
2551,0.08243378997
2550,0.08166635782
2549,0.08084526658
2548,0.08197259903
2547,0.082280837
2546,0.08117963374
2545,0.08154393733
2544,0.08151233196
2543,0.08145508915
2542,0.08150061965
2541,0.08157257736
2540,0.08168463409
2539,0.08182477951
2538,0.08187731355
2537,0.08127491921
2536,0.08183649927
2535,0.08161999285
2534,0.08136669546
2533,0.08178771287
2532,0.08136060834
2531,0.08194418252
2530,0.08236788213
2529,0.08223100752
2528,0.08190641552
2527,0.08148594201
2526,0.08191085607
2525,0.08188807219
2524,0.08197459579
2523,0.08191954345
2522,0.08187378198
2521,0.08231325448
2520,0.08220138401
2519,0.08230352402
2518,0.08203228563
2517,0.08215771616
2516,0.08213616908
2515,0.08243128657
2514,0.08249397576
2513,0.08244070411
2512,0.08248602599
2511,0.08217976987
2510,0.0826657638
2509,0.08231140673
2508,0.08260220289
2507,0.0824835524
2506,0.08236935735
2505,0.08252152056
2504,0.08226447552
2503,0.08257834613
2502,0.0829616487
2501,0.08278417587
2500,0.0829712376
2499,0.08263926953
2498,0.08260564506
2497,0.08291884512
2496,0.08286383003
2495,0.08293523639
2494,0.08273615688
2493,0.08289252967
2492,0.08282028884
2491,0.08311512321
2490,0.08303263038
2489,0.08295626193
2488,0.08324086666
2487,0.0833055228
2486,0.08316966891
2485,0.08321982622
2484,0.08320173621
2483,0.08332895488
2482,0.08321681619
2481,0.08341833949
2480,0.08322293311
2479,0.08319205046
2478,0.08317286521
2477,0.0836218372
2476,0.08343402296
2475,0.08354461193
2474,0.08342774957
2473,0.08368517458
2472,0.08396793902
2471,0.08387928456
2470,0.08372293413
2469,0.08367606997
2468,0.08381971717
2467,0.08412663639
2466,0.08405487984
2465,0.08382242173
2464,0.08413411677
2463,0.08374358714
2462,0.08388735354
2461,0.08422976732
2460,0.08428762853
2459,0.08404222131
2458,0.08420739323
2457,0.08428441733
2456,0.08400971442
2455,0.08446536958
2454,0.08468014747
2453,0.08439390361
2452,0.08463957161
2451,0.08474118263
2450,0.08447942883
2449,0.08454492688
2448,0.08458471298
2447,0.08450511843
2446,0.08498005569
2445,0.08489339799
2444,0.08485393226
2443,0.08476818353
2442,0.08513919264
2441,0.08489884436
2440,0.0850328207
2439,0.08512250334
2438,0.08531277627
2437,0.08503931016
2436,0.08504784107
2435,0.08517559618
2434,0.08520684391
2433,0.08525982499
2432,0.08548934013
2431,0.08551032841
2430,0.0855365172
2429,0.08561296761
2428,0.08567334712
2427,0.08553541452
2426,0.08584484458
2425,0.08608214557
2424,0.08572537452
2423,0.08585701883
2422,0.08597100526
2421,0.08580191433
2420,0.08607312292
2419,0.08622915298
2418,0.08586575836
2417,0.08617485315
2416,0.08638842404
2415,0.08618997037
2414,0.0863141492
2413,0.08649983257
2412,0.08636663109
2411,0.08632368594
2410,0.08666145056
2409,0.08653211594
2408,0.08645080775
2407,0.08695320785
2406,0.08676379174
2405,0.08670029044
2404,0.08697316796
2403,0.08694128692
2402,0.08688215911
2401,0.08713957667
2400,0.08703228086
2399,0.08693278581
2398,0.0872169733
2397,0.08743501455
2396,0.08730340004
2395,0.08762989193
2394,0.08760978281
2393,0.08745432645
2392,0.08768478781
2391,0.08789339662
2390,0.08765779436
2389,0.08794692904
2388,0.08791105449
2387,0.08789783716
2386,0.08796690404
2385,0.08816882968
2384,0.08822011203
2383,0.08821859211
2382,0.08828282356
2381,0.08836247772
2380,0.08841606975
2379,0.08857091516
2378,0.08864976466
2377,0.0887029171
2376,0.08866110444
2375,0.08888749778
2374,0.08903974295
2373,0.08900764585
2372,0.08905038983
2371,0.08918114007
2370,0.08924201131
2369,0.08916050941
2368,0.08954744041
2367,0.08947023749
2366,0.08934744447
2365,0.08964082599
2364,0.08984509856
2363,0.0897173956
2362,0.08991450816
2361,0.0900387615
2360,0.08998318762
2359,0.08994904906
2358,0.09045762569
2357,0.09041073173
2356,0.09024124593
2355,0.09039553255
2354,0.09065905958
2353,0.09063794464
2352,0.09063536674
2351,0.09086470306
2350,0.09104238451
2349,0.09097184241
2348,0.09103006124
2347,0.09144921601
2346,0.09122454375
2345,0.09120471776
2344,0.09151689708
2343,0.09175603837
2342,0.09156573564
2341,0.09166594595
2340,0.09185783565
2339,0.09186077863
2338,0.09190750867
2337,0.09209284186
2336,0.09229826927
2335,0.09222207963
2334,0.0922934413
2333,0.09256376326
2332,0.09253262728
2331,0.09235773236
2330,0.09280265123
2329,0.09310042858
2328,0.09298612922
2327,0.09288506955
2326,0.09336214513
2325,0.09330482781
2324,0.09320817888
2323,0.09342495352
2322,0.09362713248
2321,0.09382740408
2320,0.09368872643
2319,0.09380947798
2318,0.09415726364
2317,0.09406843781
2316,0.09426560253
2315,0.09440150857
2314,0.09465238452
2313,0.09450346977
2312,0.09453487396
2311,0.09493014216
2310,0.09498605877
2309,0.09494808316
2308,0.0951429382
2307,0.09537364542
2306,0.09554740787
2305,0.09523428231
2304,0.09560821205
2303,0.09591273218
2302,0.09583238512
2301,0.09574650228
2300,0.09596367925
2299,0.09613476694
2298,0.09641703218
2297,0.09606474638
2296,0.09632828832
2295,0.09678360075
2294,0.09672816098
2293,0.09671189636
2292,0.09700744599
2291,0.09717234224
2290,0.09716842324
2289,0.09748670459
2288,0.09737280011
2287,0.09767431766
2286,0.09762028605
2285,0.09757822007
2284,0.09793610871
2283,0.09828900546
2282,0.0982477814
2281,0.09822652489
2280,0.09831494093
2279,0.09843224287
2278,0.09899396449
2277,0.09830848128
2276,0.09911593795
2275,0.09919705987
2274,0.09952350706
2273,0.09939373285
2272,0.09965416044
2271,0.09963621944
2270,0.09981889278
2269,0.0999404788
2268,0.100299634
2267,0.1002841443
2266,0.1003290191
2265,0.1007122621
2264,0.1004943028
2263,0.1004471257
2262,0.1011827886
2261,0.1012157649
2260,0.1015935093
2259,0.101543732
2258,0.1015080512
2257,0.1018747985
2256,0.1017953381
2255,0.1017365381
2254,0.102341406
2253,0.102664493
2252,0.1026998088
2251,0.102853559
2250,0.1028382778
2249,0.103185229
2248,0.1032980084
2247,0.1034035906
2246,0.1037375554
2245,0.1039687321
2244,0.104150407
2243,0.1042043045
2242,0.1042298675
2241,0.1042630449
2240,0.1045772135
2239,0.1049554944
2238,0.1050831452
2237,0.1052903533
2236,0.1052342802
2235,0.1056329086
2234,0.1058614925
2233,0.105937697
2232,0.1060221195
2231,0.1063613743
2230,0.106615454
2229,0.1063912362
2228,0.1066819653
2227,0.1070133969
2226,0.1073576435
2225,0.1076082215
2224,0.1075151116
2223,0.1077018604
2222,0.1077842936
2221,0.1083522439
2220,0.1085399836
2219,0.1087927446
2218,0.1087611243
2217,0.1088451594
2216,0.1091321781
2215,0.1095396653
2214,0.1096341163
2213,0.1096612737
2212,0.1099014208
2211,0.110442102
2210,0.1106127128
2209,0.1107316464
2208,0.1107744724
2207,0.1109520346
2206,0.1111473888
2205,0.1117078364
2204,0.1118918732
2203,0.111706391
2202,0.1118328273
2201,0.1123943925
2200,0.1125079468
2199,0.1125468239
2198,0.1128976643
2197,0.1129666269
2196,0.1130759642
2195,0.113512516
2194,0.1137606874
2193,0.1138653159
2192,0.1139667705
2191,0.1141212285
2190,0.1145875826
2189,0.1148594394
2188,0.1149748489
2187,0.1152201816
2186,0.115222849
2185,0.1155034453
2184,0.1156497747
2183,0.115967229
2182,0.1163041592
2181,0.1162322983
2180,0.1164908335
2179,0.1165784821
2178,0.1169362888
2177,0.1175539345
2176,0.1174812913
2175,0.1178230345
2174,0.1179194748
2173,0.1182948425
2172,0.1183045954
2171,0.1187055781
2170,0.1190011948
2169,0.1191970035
2168,0.1193956956
2167,0.1195854098
2166,0.1196716353
2165,0.1201633811
2164,0.1204258353
2163,0.120556578
2162,0.1207395196
2161,0.1210096106
2160,0.1211834326
2159,0.1216164678
2158,0.1219048575
2157,0.1221442595
2156,0.1222601533
2155,0.1224742904
2154,0.1226306036
2153,0.1230687946
2152,0.1233854592
2151,0.1235362589
2150,0.1237371489
2149,0.1240353584
2148,0.1243346706
2147,0.124442324
2146,0.124736324
2145,0.1251073778
2144,0.1253162771
2143,0.1253871769
2142,0.125830546
2141,0.1261322647
2140,0.1263632476
2139,0.1266234517
2138,0.1270205379
2137,0.1272095442
2136,0.1273150742
2135,0.1276060939
2134,0.1279110014
2133,0.1281097233
2132,0.1284641474
2131,0.1289350837
2130,0.129184559
2129,0.1292236
2128,0.1295926124
2127,0.1297819912
2126,0.1300037801
2125,0.130410701
2124,0.1307799518
2123,0.1309827566
2122,0.1312476397
2121,0.1315935999
2120,0.1318922639
2119,0.1320475638
2118,0.1322603673
2117,0.1327687502
2116,0.1330501884
2115,0.133338958
2114,0.1337849945
2113,0.1340171546
2112,0.1342092454
2111,0.1344977915
2110,0.1347984374
2109,0.1351404488
2108,0.1355106682
2107,0.1358469874
2106,0.1361026615
2105,0.1364464462
2104,0.1368308067
2103,0.1369513869
2102,0.1372808665
2101,0.1377216876
2100,0.1379282624
2099,0.1383697838
2098,0.138559103
2097,0.1390641183
2096,0.1394284219
2095,0.1397040486
2094,0.140033856
2093,0.1403778791
2092,0.140733093
2091,0.1409730017
2090,0.1413434297
2089,0.1417225599
2088,0.142017439
2087,0.1425689906
2086,0.1427758634
2085,0.1430800557
2084,0.1435271055
2083,0.1439544857
2082,0.144193083
2081,0.1445999295
2080,0.1448843032
2079,0.1452339888
2078,0.1455622464
2077,0.1458645612
2076,0.1463515759
2075,0.1465785503
2074,0.147095263
2073,0.1474750936
2072,0.1477789283
2071,0.1482058316
2070,0.1483530402
2069,0.1488982439
2068,0.1492947787
2067,0.1497048438
2066,0.1499207169
2065,0.1504375488
2064,0.1508039385
2063,0.1511420459
2062,0.1516021639
2061,0.1519096047
2060,0.1523457915
2059,0.1525125504
2058,0.1531252861
2057,0.1533935517
2056,0.1537794918
2055,0.1542652398
2054,0.1545818448
2053,0.1550856829
2052,0.1553697884
2051,0.1557815373
2050,0.1561292559
2049,0.1565374434
2048,0.1570586562
2047,0.1572552621
2046,0.157652691
2045,0.15812096
2044,0.1584982574
2043,0.1589638889
2042,0.1594106257
2041,0.1598064303
2040,0.1601097435
2039,0.1605805606
2038,0.1608947963
2037,0.1612436175
2036,0.161716789
2035,0.1621184349
2034,0.1624692231
2033,0.1628914922
2032,0.1634835303
2031,0.1638503373
2030,0.1640919596
2029,0.1646226645
2028,0.1648796648
2027,0.1652980745
2026,0.1658651084
2025,0.1662182957
2024,0.1667366624
2023,0.166886121
2022,0.1673606783
2021,0.1677991152
2020,0.1682305336
2019,0.1686681211
2018,0.1690522581
2017,0.1695236862
2016,0.169863224
2015,0.1703186035
2014,0.1706110537
2013,0.1710105687
2012,0.1714175642
2011,0.1719092578
2010,0.1723296493
2009,0.172599718
2008,0.1730409861
2007,0.1733693033
2006,0.1737672389
2005,0.1742676347
2004,0.174567908
2003,0.1749125272
2002,0.1755003184
2001,0.1758295745
2000,0.1762202978
1999,0.1766810268
1998,0.1771146208
1997,0.1774229109
1996,0.1777317971
1995,0.178137809
1994,0.1784262359
1993,0.1791006029
1992,0.1795055419
1991,0.179770574
1990,0.1800350547
1989,0.1805239767
1988,0.1808048189
1987,0.1812499762
1986,0.1815832704
1985,0.1819200069
1984,0.182453692
1983,0.1827293634
1982,0.1830536127
1981,0.1834071279
1980,0.1837801784
1979,0.1842859685
1978,0.18452622
1977,0.1849861443
1976,0.1852855533
1975,0.185601756
1974,0.1860105842
1973,0.1863424182
1972,0.1866963953
1971,0.1871701777
1970,0.1874839365
1969,0.1879052222
1968,0.1881723255
1967,0.1884257048
1966,0.1887789071
1965,0.1891912967
1964,0.1895094365
1963,0.1898356229
1962,0.1900786459
1961,0.1905989349
1960,0.190956071
1959,0.1912169755
1958,0.1916038692
1957,0.1919785589
1956,0.1923163682
1955,0.1926722974
1954,0.1930881143
1953,0.1932534575
1952,0.1935993731
1951,0.1938764602
1950,0.19443883
1949,0.194775179
1948,0.1950448304
1947,0.1953283697
1946,0.1957238615
1945,0.1962869167
1944,0.1964404732
1943,0.1967730075
1942,0.1971286535
1941,0.197516337
1940,0.1979227811
1939,0.1982426047
1938,0.1985760778
1937,0.1989095211
1936,0.1993188262
1935,0.1996011883
1934,0.2001007199
1933,0.2004259229
1932,0.2007060945
1931,0.2009395659
1930,0.2013223469
1929,0.2017799169
1928,0.2021032423
1927,0.2024375945
1926,0.2027327716
1925,0.2029951662
1924,0.2035727054
1923,0.2039579004
1922,0.2039584816
1921,0.2045742869
1920,0.2055963725
1919,0.2055701166
1918,0.2055293471
1917,0.2060918212
1916,0.2065064162
1915,0.2066989541
1914,0.2071690559
1913,0.2075712383
1912,0.2079143673
1911,0.2082883418
1910,0.2087982744
1909,0.2088709474
1908,0.2091616541
1907,0.2093792111
1906,0.2102811486
1905,0.2106147408
1904,0.210847497
1903,0.2112783194
1902,0.2113136947
1901,0.2114293426
1900,0.2121926099
1899,0.2127367109
1898,0.213053897
1897,0.2134178579
1896,0.2136128694
1895,0.213845551
1894,0.2143122256
1893,0.2147488445
1892,0.2149065882
1891,0.2153408676
1890,0.2160060555
1889,0.2161694616
1888,0.2162126005
1887,0.2166174948
1886,0.2168603539
1885,0.2171353698
1884,0.2177038193
1883,0.2180092186
1882,0.2180998921
1881,0.2184869349
1880,0.2188158035
1879,0.2189581543
1878,0.2190752476
1877,0.2195197344
1876,0.2198978662
1875,0.2199065834
1874,0.2203148901
1873,0.2209243327
1872,0.2210530788
1871,0.2212505341
1870,0.221736744
1869,0.2216462195
1868,0.2223024517
1867,0.2227230519
1866,0.2225707322
1865,0.2227936089
1864,0.2231192589
1863,0.223264277
1862,0.2232535481
1861,0.2235232443
1860,0.2241022885
1859,0.2243602276
1858,0.2240710706
1857,0.2244950384
1856,0.2246513218
1855,0.2244443297
1854,0.2250009775
1853,0.2254169285
1852,0.2252022773
1851,0.2252422273
1850,0.2253075093
1849,0.2251765728
1848,0.2258595824
1847,0.2263468504
1846,0.226060465
1845,0.2259721607
1844,0.2260243893
1843,0.225835517
1842,0.2262571901
1841,0.2265236974
1840,0.2264469117
1839,0.2265435457
1838,0.2262011468
1837,0.2266025096
1836,0.2266202569
1835,0.2268610746
1834,0.2266671509
1833,0.2264827937
1832,0.2263980359
1831,0.2265082151
1830,0.2265780866
1829,0.2265766859
1828,0.2264055759
1827,0.2261932194
1826,0.2264924347
1825,0.2263821661
1824,0.2261221558
1823,0.2259398401
1822,0.2259836644
1821,0.2259399295
1820,0.2260055244
1819,0.2258155644
1818,0.2256082445
1817,0.2254003584
1816,0.2253850102
1815,0.2252631038
1814,0.2249992341
1813,0.2248993814
1812,0.2247607708
1811,0.2245097011
1810,0.2244356573
1809,0.224300921
1808,0.2239620686
1807,0.223851651
1806,0.2237277478
1805,0.2234189212
1804,0.2231809199
1803,0.2230324298
1802,0.2227607518
1801,0.2225918174
1800,0.2223760933
1799,0.2221719474
1798,0.2219443023
1797,0.2215868384
1796,0.2214226872
1795,0.2210860699
1794,0.2209545225
1793,0.2206606418
1792,0.2203644663
1791,0.2200695723
1790,0.2198075056
1789,0.2195596844
1788,0.2193537354
1787,0.2189898193
1786,0.2187324464
1785,0.218509078
1784,0.2181000561
1783,0.2177086174
1782,0.2176480591
1781,0.2172513008
1780,0.2169081718
1779,0.2165630609
1778,0.2163685709
1777,0.2160332501
1776,0.215752691
1775,0.2154050469
1774,0.2150435448
1773,0.2147334367
1772,0.2144377083
1771,0.2142012417
1770,0.2136586905
1769,0.2133917063
1768,0.2131719142
1767,0.2128172815
1766,0.2124973983
1765,0.21216923
1764,0.2119283378
1763,0.211463511
1762,0.2111897022
1761,0.2109081149
1760,0.210585013
1759,0.2101960331
1758,0.2099254727
1757,0.2096246928
1756,0.2091672271
1755,0.2088658065
1754,0.2085663974
1753,0.2082936913
1752,0.2079081088
1751,0.2076977491
1750,0.2072621584
1749,0.206914112
1748,0.2066072226
1747,0.2062756866
1746,0.2059565037
1745,0.2056629211
1744,0.2052377909
1743,0.204886049
1742,0.2046385854
1741,0.2042672932
1740,0.2038918734
1739,0.2036399245
1738,0.2032518685
1737,0.2029349059
1736,0.2025720775
1735,0.20218876
1734,0.2017810643
1733,0.2014056891
1732,0.2012221664
1731,0.2008601427
1730,0.2005212903
1729,0.2000880837
1728,0.1997222453
1727,0.19936499
1726,0.1990933865
1725,0.1986779124
1724,0.1982638091
1723,0.1979634613
1722,0.1975282878
1721,0.1972375363
1720,0.1968442798
1719,0.1964437962
1718,0.196000129
1717,0.1956367791
1716,0.1952943504
1715,0.1949351728
1714,0.1945573986
1713,0.1941932738
1712,0.1937678605
1711,0.1933863014
1710,0.1930113733
1709,0.1925718188
1708,0.1921733022
1707,0.1918398738
1706,0.1913969219
1705,0.1909304857
1704,0.1905894578
1703,0.1901100874
1702,0.1897843331
1701,0.1893994063
1700,0.188947618
1699,0.1885880083
1698,0.1880611777
1697,0.1877149493
1696,0.1873860061
1695,0.1869289875
1694,0.186472401
1693,0.1860519797
1692,0.185666129
1691,0.1852198392
1690,0.1848764122
1689,0.1844518334
1688,0.1839871705
1687,0.1835934371
1686,0.1831574738
1685,0.1827374399
1684,0.1823015958
1683,0.1819190979
1682,0.1814580113
1681,0.1811334193
1680,0.1806721687
1679,0.1802296489
1678,0.1798294634
1677,0.179358229
1676,0.179056704
1675,0.1786352247
1674,0.1781608164
1673,0.1778287441
1672,0.1773974299
1671,0.176962778
1670,0.1765724421
1669,0.1762228608
1668,0.1757577211
1667,0.1754601151
1666,0.1750194579
1665,0.1746183187
1664,0.1742817909
1663,0.1737139821
1662,0.1733707339
1661,0.1729757786
1660,0.1725985706
1659,0.1721511036
1658,0.1717704982
1657,0.171368733
1656,0.1709469408
1655,0.1705532819
1654,0.1701969206
1653,0.169716388
1652,0.169313848
1651,0.1690283418
1650,0.1685405821
1649,0.168157205
1648,0.1677331775
1647,0.1673227847
1646,0.1669748127
1645,0.1665335596
1644,0.1662694961
1643,0.1657351106
1642,0.1653611064
1641,0.165025264
1640,0.1646254212
1639,0.1642087698
1638,0.1638821214
1637,0.1634766608
1636,0.1630537212
1635,0.1626973301
1634,0.1623397321
1633,0.1618886143
1632,0.1615067869
1631,0.1610727012
1630,0.1608199626
1629,0.1603473872
1628,0.1601276696
1627,0.1596632153
1626,0.1593158394
1625,0.1589976698
1624,0.158612594
1623,0.1581603736
1622,0.1578295678
1621,0.1575064212
1620,0.1571920961
1619,0.156816721
1618,0.1564633995
1617,0.1560334712
1616,0.1556859165
1615,0.1554395109
1614,0.1550946683
1613,0.1546782255
1612,0.1544099003
1611,0.1541142017
1610,0.1537760943
1609,0.1534212679
1608,0.1531384587
1607,0.1528462768
1606,0.1524499208
1605,0.1522357017
1604,0.1519735456
1603,0.1515914798
1602,0.1512960196
1601,0.1510175616
1600,0.1507425904
1599,0.1504692882
1598,0.1501929015
1597,0.1499158889
1596,0.1496326476
1595,0.1493296325
1594,0.1490644068
1593,0.1488625407
1592,0.1486140341
1591,0.148310706
1590,0.1481273323
1589,0.1478718519
1588,0.1475986838
1587,0.147326082
1586,0.1471827775
1585,0.1468926817
1584,0.1466732025
1583,0.1464560181
1582,0.1462695003
1581,0.1461278498
1580,0.1458608359
1579,0.1456439793
1578,0.1453711838
1577,0.1451469064
1576,0.1449914277
1575,0.1448270231
1574,0.1446615756
1573,0.1443918943
1572,0.144206509
1571,0.1439705342
1570,0.1438377798
1569,0.1437036544
1568,0.1434760243
1567,0.1432625502
1566,0.1431836486
1565,0.1429450512
1564,0.1428159624
1563,0.1426385492
1562,0.1424414366
1561,0.1423022151
1560,0.1421773285
1559,0.1420040876
1558,0.1418635696
1557,0.1417114735
1556,0.1415574998
1555,0.14134188
1554,0.1412181407
1553,0.141084969
1552,0.1409679502
1551,0.1407892108
1550,0.1407001168
1549,0.1405144483
1548,0.1404291689
1547,0.1403134763
1546,0.1401435882
1545,0.140071556
1544,0.1398802549
1543,0.1397942454
1542,0.1396655887
1541,0.1394881606
1540,0.1393898129
1539,0.1393612027
1538,0.1391834021
1537,0.1390658021
1536,0.1390534192
1535,0.1388810724
1534,0.1388064474
1533,0.1387289464
1532,0.1385697126
1531,0.1384179145
1530,0.1383514851
1529,0.1383047551
1528,0.1381862462
1527,0.1380861849
1526,0.1379616559
1525,0.1378992051
1524,0.1377957463
1523,0.1377862841
1522,0.1376343668
1521,0.1375550181
1520,0.1374342293
1519,0.137383759
1518,0.1373494118
1517,0.1372531354
1516,0.1371102482
1515,0.137056157
1514,0.1369749606
1513,0.1369837224
1512,0.1368513405
1511,0.1367705017
1510,0.1366885751
1509,0.1365425438
1508,0.1366734058
1507,0.13648431
1506,0.136417076
1505,0.136363104
1504,0.136267826
1503,0.1363025755
1502,0.1363037527
1501,0.1361176819
1500,0.1360239834
1499,0.1360194832
1498,0.135934338
1497,0.1359258443
1496,0.1358335018
1495,0.1357973963
1494,0.1357485354
1493,0.135706991
1492,0.1356238872
1491,0.1356083304
1490,0.1355765611
1489,0.1354615539
1488,0.1354958862
1487,0.1354487538
1486,0.1353985369
1485,0.1352436841
1484,0.1352771521
1483,0.1352654845
1482,0.1352105588
1481,0.1351064295
1480,0.1350771636
1479,0.135056749
1478,0.1349810809
1477,0.1350211054
1476,0.1349677294
1475,0.1348931342
1474,0.1348480135
1473,0.1348392218
1472,0.1347927451
1471,0.1347598433
1470,0.1347335875
1469,0.1346698254
1468,0.1346322
1467,0.1346545815
1466,0.1346033067
1465,0.1345264465
1464,0.1345356256
1463,0.1344926804
1462,0.1345278919
1461,0.1344112903
1460,0.1343797147
1459,0.1344099194
1458,0.134308368
1457,0.1343044937
1456,0.1342665404
1455,0.1342974752
1454,0.1342595965
1453,0.134167105
1452,0.1341697127
1451,0.1341106743
1450,0.1341314614
1449,0.1340718567
1448,0.1340900511
1447,0.1340219527
1446,0.133984834
1445,0.1339869499
1444,0.1339568645
1443,0.1339342296
1442,0.1338933706
1441,0.133849889
1440,0.133847639
1439,0.1338248402
1438,0.1337777823
1437,0.1338094473
1436,0.1337784529
1435,0.133672148
1434,0.1336769462
1433,0.1336587071
1432,0.1336332113
1431,0.1336877942
1430,0.1336106658
1429,0.1335631758
1428,0.1335874349
1427,0.1335102916
1426,0.1334708035
1425,0.1334907264
1424,0.1334697753
1423,0.13348037
1422,0.1333738416
1421,0.133369118
1420,0.1333319545
1419,0.1332977563
1418,0.1333391815
1417,0.1332800239
1416,0.1331808567
1415,0.1332028061
1414,0.133160308
1413,0.1332134604
1412,0.1331259906
1411,0.1330281049
1410,0.1330779046
1409,0.1331152171
1408,0.1330791712
1407,0.1330442876
1406,0.1329867691
1405,0.1330406666
1404,0.1330977082
1403,0.1328986287
1402,0.1329083294
1401,0.1329135597
1400,0.1329291314
1399,0.1329035759
1398,0.1327722669
1397,0.1327679157
1396,0.1328421086
1395,0.1329253018
1394,0.1328038275
1393,0.1327371597
1392,0.1328166127
1391,0.1327595413
1390,0.132719487
1389,0.1327646077
1388,0.1327593029
1387,0.1326562464
1386,0.1327395886
1385,0.1327105612
1384,0.1326757818
1383,0.1327239126
1382,0.1327006221
1381,0.1326787919
1380,0.1326587647
1379,0.1325063556
1378,0.1325166821
1377,0.1325005293
1376,0.1323790848
1375,0.1323619932
1374,0.1323659569
1373,0.1322728992
1372,0.1322977096
1371,0.1323588043
1370,0.1322845817
1369,0.1322254092
1368,0.1322650611
1367,0.13223885
1366,0.1321252435
1365,0.1322078556
1364,0.1321898848
1363,0.1320225745
1362,0.1322431564
1361,0.1322299689
1360,0.1320919394
1359,0.1320819408
1358,0.1320372522
1357,0.1319892555
1356,0.1320207864
1355,0.132052958
1354,0.1319959909
1353,0.1319840997
1352,0.1319646239
1351,0.1319862008
1350,0.1319749802
1349,0.131914258
1348,0.131916821
1347,0.1319372356
1346,0.1319377571
1345,0.1319201887
1344,0.1319137663
1343,0.1318801343
1342,0.1318997443
1341,0.1319277585
1340,0.131936118
1339,0.131953299
1338,0.1319098771
1337,0.1319388151
1336,0.1319053471
1335,0.131901145
1334,0.1319389939
1333,0.1319302171
1332,0.1319128573
1331,0.1319336593
1330,0.1319131404
1329,0.1319635808
1328,0.1319715679
1327,0.1320307255
1326,0.1319996417
1325,0.1320075244
1324,0.1320107281
1323,0.1319859922
1322,0.1320408285
1321,0.1320970953
1320,0.1321220547
1319,0.1320925355
1318,0.1321115941
1317,0.1321296692
1316,0.1321846247
1315,0.1322165281
1314,0.1321991533
1313,0.1322576553
1312,0.13223432
1311,0.132314384
1310,0.1323729157
1309,0.1324032545
1308,0.1323384643
1307,0.132410869
1306,0.1324573606
1305,0.1325231344
1304,0.1325372308
1303,0.1326204836
1302,0.1325831413
1301,0.1326645017
1300,0.1326960176
1299,0.1327735633
1298,0.1328087151
1297,0.1328238249
1296,0.1328684986
1295,0.1329803318
1294,0.1330055445
1293,0.133038491
1292,0.1331260502
1291,0.1331458539
1290,0.1332419962
1289,0.1333284825
1288,0.1333489865
1287,0.1333927065
1286,0.1334403902
1285,0.1335061491
1284,0.1336470842
1283,0.1336808205
1282,0.1337292343
1281,0.133820504
1280,0.1338840574
1279,0.1339473128
1278,0.1340671778
1277,0.1341272444
1276,0.1341999322
1275,0.134300366
1274,0.1344119906
1273,0.1344607174
1272,0.1345874965
1271,0.1347213984
1270,0.1347608715
1269,0.1348980516
1268,0.1349732727
1267,0.1350667775
1266,0.1351812333
1265,0.1352794766
1264,0.1354476213
1263,0.1355210394
1262,0.135621801
1261,0.1357388794
1260,0.1358711272
1259,0.1359747052
1258,0.1361448765
1257,0.1362450123
1256,0.1364026815
1255,0.1364943981
1254,0.1366319507
1253,0.1367605329
1252,0.1369178295
1251,0.1370428801
1250,0.1371709406
1249,0.1373027116
1248,0.137493059
1247,0.1376204044
1246,0.1377972066
1245,0.137936756
1244,0.1380786896
1243,0.138247624
1242,0.1384159178
1241,0.138568297
1240,0.1387109905
1239,0.1388714463
1238,0.1390582025
1237,0.1392285228
1236,0.1394020617
1235,0.1395283192
1234,0.1397183239
1233,0.1399238408
1232,0.1400655657
1231,0.1402543634
1230,0.1404530257
1229,0.1406802535
1228,0.1408283412
1227,0.1410814971
1226,0.1412427574
1225,0.141400069
1224,0.1416438967
1223,0.1418379843
1222,0.1420554221
1221,0.1422296613
1220,0.1424696892
1219,0.1427147686
1218,0.1428860277
1217,0.1431141347
1216,0.1433848739
1215,0.1435799152
1214,0.1438464671
1213,0.1441021711
1212,0.1443127394
1211,0.1445411295
1210,0.144775331
1209,0.1450622678
1208,0.1453068405
1207,0.1456107199
1206,0.1458106041
1205,0.1461068541
1204,0.146358788
1203,0.1465937793
1202,0.1469136626
1201,0.1472037733
1200,0.1474322379
1199,0.1475567967
1198,0.1478401273
1197,0.148142904
1196,0.1484471709
1195,0.1487373263
1194,0.1490606964
1193,0.1493620872
1192,0.1496461034
1191,0.1499166489
1190,0.1502129883
1189,0.150552243
1188,0.1509049088
1187,0.1511513144
1186,0.1514459252
1185,0.151769802
1184,0.1521339864
1183,0.1524599642
1182,0.1527842283
1181,0.1530466974
1180,0.1533712596
1179,0.1537591219
1178,0.1540347338
1177,0.1543711126
1176,0.1546674371
1175,0.1549743116
1174,0.1553416997
1173,0.1556431204
1172,0.1559857577
1171,0.1562385112
1170,0.1566207856
1169,0.1569686979
1168,0.1572883874
1167,0.1576289833
1166,0.157908842
1165,0.1582026929
1164,0.1585728377
1163,0.1589261144
1162,0.159241125
1161,0.159574464
1160,0.159889847
1159,0.160236448
1158,0.1605881304
1157,0.1609569192
1156,0.1612817496
1155,0.1615778208
1154,0.161937654
1153,0.1622571647
1152,0.1626359224
1151,0.1630004793
1150,0.1633683443
1149,0.16372329
1148,0.1641174555
1147,0.1645386517
1146,0.1649316251
1145,0.1653219014
1144,0.1657652557
1143,0.1661652774
1142,0.166592136
1141,0.1670190692
1140,0.1674547642
1139,0.1679414213
1138,0.1683818251
1137,0.1688322127
1136,0.1692835391
1135,0.1698493212
1134,0.1703727394
1133,0.1708820313
1132,0.1713953912
1131,0.1718974113
1130,0.1723734587
1129,0.1728952229
1128,0.1734283864
1127,0.1739886254
1126,0.1745507568
1125,0.1751163304
1124,0.1756328046
1123,0.1762230843
1122,0.1768284589
1121,0.1773670912
1120,0.1779320985
1119,0.1785242707
1118,0.1790669858
1117,0.1796348989
1116,0.180224508
1115,0.180776909
1114,0.1813143045
1113,0.1819012761
1112,0.1824865192
1111,0.1829793602
1110,0.1835644841
1109,0.1840662509
1108,0.1845838279
1107,0.1851496547
1106,0.1856625676
1105,0.1860876977
1104,0.1866265237
1103,0.1870947778
1102,0.1875470728
1101,0.1880176365
1100,0.1883532107
1099,0.1888290495
1098,0.1892632544
1097,0.1896130592
1096,0.1899840981
1095,0.190314576
1094,0.1906343848
1093,0.1909805089
1092,0.1912886202
1091,0.1915614158
1090,0.1918160021
1089,0.1920488924
1088,0.1923225671
1087,0.1925697178
1086,0.192778483
1085,0.1929071844
1084,0.193131566
1083,0.1933246851
1082,0.1935410053
1081,0.1937309057
1080,0.1938842684
1079,0.1940607578
1078,0.1942249686
1077,0.1943589598
1076,0.1945711374
1075,0.1947320551
1074,0.1948956698
1073,0.1950745583
1072,0.1952568144
1071,0.1955150217
1070,0.1957519352
1069,0.1959172487
1068,0.1961092353
1067,0.1963579059
1066,0.1966217011
1065,0.1968275756
1064,0.1971068978
1063,0.1974659711
1062,0.197707653
1061,0.1979762018
1060,0.198251754
1059,0.1985889226
1058,0.1989105046
1057,0.1992654055
1056,0.1996514797
1055,0.1999730319
1054,0.2003430277
1053,0.2007247061
1052,0.2010811865
1051,0.2015083581
1050,0.2018701434
1049,0.2021796405
1048,0.2025638223
1047,0.2030311525
1046,0.2033460438
1045,0.2037120014
1044,0.2040935159
1043,0.2044254243
1042,0.2048307508
1041,0.205153957
1040,0.2054462433
1039,0.2057180405
1038,0.2060047984
1037,0.2063283026
1036,0.206635505
1035,0.2068441361
1034,0.2070689648
1033,0.2072810084
1032,0.207413286
1031,0.2075800002
1030,0.2077423036
1029,0.2078748941
1028,0.2079119086
1027,0.208035171
1026,0.2080966532
1025,0.2082123756
1024,0.2081208527
1023,0.2081563026
1022,0.2081533372
1021,0.2080956101
1020,0.2080296576
1019,0.2078999132
1018,0.2078457326
1017,0.2077762634
1016,0.2076569051
1015,0.2075192183
1014,0.207360208
1013,0.2071679235
1012,0.2069972008
1011,0.2069070786
1010,0.2066217959
1009,0.2064344585
1008,0.2061847448
1007,0.2060188502
1006,0.2057589442
1005,0.2055549771
1004,0.2053562701
1003,0.2050105482
1002,0.2047569603
1001,0.2045165747
1000,0.2042684555
999,0.2039254457
998,0.2036320269
997,0.2033147514
996,0.2030359954
995,0.2027104348
994,0.2023453116
993,0.2020069957
992,0.2016114593
991,0.2012612522
990,0.2010062188
989,0.2005644739
988,0.200251013
987,0.1998648196
986,0.1995222121
985,0.199127242
984,0.1987497807
983,0.1983870715
982,0.1979441345
981,0.1976681203
980,0.1972762644
979,0.1968964487
978,0.1965383887
977,0.1962259114
976,0.1958655119
975,0.1955714673
974,0.1952099055
973,0.1949116439
972,0.1945937872
971,0.1942239255
970,0.1939892918
969,0.1936736852
968,0.1933402717
967,0.1930840015
966,0.1927821636
965,0.1924583018
964,0.1922331005
963,0.1919683665
962,0.1916315556
961,0.1913025677
960,0.1911104023
959,0.1907586306
958,0.1904783398
957,0.1901171505
956,0.189890787
955,0.1896474212
954,0.1892781556
953,0.1889816523
952,0.1886388063
951,0.1883205026
950,0.1879580617
949,0.1876456738
948,0.187307179
947,0.1869950742
946,0.1865454167
945,0.1862110496
944,0.1858140975
943,0.1855288893
942,0.1850335002
941,0.1846636981
940,0.1843210608
939,0.1840150058
938,0.1836054921
937,0.1830839515
936,0.1828422546
935,0.1822882742
934,0.1819444448
933,0.1816991717
932,0.1812306941
931,0.180897668
930,0.1804959774
929,0.180148825
928,0.1796907783
927,0.1793372929
926,0.1788444668
925,0.1784671098
924,0.178123638
923,0.1777497977
922,0.1773385853
921,0.1768466532
920,0.1764791608
919,0.1761012226
918,0.1757296622
917,0.1751751453
916,0.1747232527
915,0.1744402796
914,0.1739815623
913,0.1737268418
912,0.1732854694
911,0.1728559136
910,0.172662437
909,0.1720491052
908,0.1716267318
907,0.1714549363
906,0.1710913926
905,0.1705141366
904,0.1704083532
903,0.1699771136
902,0.1694709212
901,0.1693401933
900,0.1686754525
899,0.1658811867
898,0.1615184546
897,0.1678984463
896,0.1750746965
895,0.1689927429
894,0.1651245654
893,0.1679419577
892,0.1650988162
891,0.1626760513
890,0.1715201735
889,0.1693175584
888,0.1705355644
887,0.1639640927
886,0.1680382341
885,0.1646530032
884,0.1695893258
883,0.1700062454
882,0.1641916484
881,0.1649438143
880,0.167249009
879,0.1642736048
878,0.1655224264
877,0.1678279638
876,0.163950339
875,0.1653431803
874,0.1668313444
873,0.1646962315
872,0.1663190722
871,0.1651340276
870,0.1651068777
869,0.1614535749
868,0.1649116874
867,0.1627362967
866,0.1625369638
865,0.16137667
864,0.1623854339
863,0.1626524925
862,0.163684383
861,0.1627020389
860,0.1624068022
859,0.1608730853
858,0.1621991694
857,0.1630024314
856,0.1614697576
855,0.1609327793
854,0.1609627753
853,0.1617575586
852,0.161439985
851,0.1608234495
850,0.1627383232
849,0.1611308753
848,0.1623239964
847,0.1610971093
846,0.1603993624
845,0.1606701463
844,0.1604558527
843,0.1608414352
842,0.1604162157
841,0.160822317
840,0.1601427495
839,0.1606968641
838,0.1618405432
837,0.1609269679
836,0.1608302742
835,0.1606926769
834,0.1605992913
833,0.160776481
832,0.1610670686
831,0.1605627984
830,0.1611286253
829,0.1612983346
828,0.161105141
827,0.1612488329
826,0.1616904587
825,0.161479786
824,0.1615779698
823,0.1621177197
822,0.1622867584
821,0.1621964574
820,0.1625063419
819,0.1620333195
818,0.1627179235
817,0.1626874954
816,0.163057968
815,0.163201794
814,0.1628044546
813,0.1630872935
812,0.1636940092
811,0.1639687419
810,0.1640907973
809,0.1641870439
808,0.1643795371
807,0.1648218185
806,0.1651705205
805,0.1651235074
804,0.1654094458
803,0.1656986773
802,0.1661660373
801,0.1661782116
800,0.1664642841
799,0.166817233
798,0.166936636
797,0.167567879
796,0.1675929576
795,0.1677502841
794,0.1679570824
793,0.1677791923
792,0.1684755981
791,0.1686282456
790,0.169114694
789,0.1691702902
788,0.1691274494
787,0.16991283
786,0.1697924584
785,0.1699575037
784,0.1702443957
783,0.1703421623
782,0.1706293076
781,0.1711848378
780,0.1714022011
779,0.1716672033
778,0.1720781922
777,0.1720843911
776,0.1725184172
775,0.1727248132
774,0.1732105166
773,0.1735184193
772,0.1742418855
771,0.1745405942
770,0.1749231368
769,0.1753750145
768,0.1755385548
767,0.1764069945
766,0.1760566533
765,0.1769687682
764,0.1774383634
763,0.1781901568
762,0.1784615368
761,0.1788721681
760,0.1800091565
759,0.1804794222
758,0.1808466762
757,0.1813314855
756,0.1817079782
755,0.1822973788
754,0.1828683317
753,0.1834565699
752,0.1835431159
751,0.1843040138
750,0.1846993715
749,0.1851897389
748,0.1855030209
747,0.1856728345
746,0.1863391548
745,0.1863568574
744,0.1864546686
743,0.1867096424
742,0.1872013658
741,0.1874044091
740,0.1876168847
739,0.1877542287
738,0.1878743023
737,0.1877839863
736,0.1880242974
735,0.1880621463
734,0.1881126016
733,0.1880961955
732,0.1882798523
731,0.1882005483
730,0.1883044094
729,0.1884233207
728,0.1884121746
727,0.1883698255
726,0.1886030287
725,0.1888650358
724,0.1890741438
723,0.1890091747
722,0.1893482059
721,0.1894961447
720,0.189395085
719,0.1894810051
718,0.1897493899
717,0.1900777668
716,0.1900802106
715,0.1901811212
714,0.1906033158
713,0.1907733679
712,0.1907828152
711,0.1913626194
710,0.1912092566
709,0.191636309
708,0.1914642602
707,0.1920235902
706,0.1918533593
705,0.1918632984
704,0.1918116063
703,0.1921482384
702,0.192307815
701,0.1921965927
700,0.1922717392
699,0.1921134591
698,0.1921646744
697,0.1920372844
696,0.191966027
695,0.1918641031
694,0.191695109
693,0.1916228235
692,0.1916542202
691,0.1914473325
690,0.1911896318
689,0.1909721494
688,0.1906166375
687,0.190660283
686,0.1904339194
685,0.1903682649
684,0.1901280135
683,0.1899709851
682,0.1898351014
681,0.1896350831
680,0.1893683374
679,0.1893747449
678,0.1890310645
677,0.1889735311
676,0.1887225509
675,0.1885803342
674,0.1883653551
673,0.1882900298
672,0.1880063862
671,0.1878736317
670,0.187445268
669,0.1874673516
668,0.187210694
667,0.1868777573
666,0.1868727356
665,0.1867039502
664,0.1864358932
663,0.1864409
662,0.1862562746
661,0.1860830039
660,0.1860103756
659,0.1858978868
658,0.1858066767
657,0.1855938137
656,0.1855564266
655,0.1854323149
654,0.1851560771
653,0.1851918399
652,0.1849483699
651,0.1848769635
650,0.1849081516
649,0.1847507954
648,0.1845962107
647,0.1845389158
646,0.1843336821
645,0.1842857301
644,0.1841499507
643,0.1841348857
642,0.1838379204
641,0.1834965348
640,0.1834486276
639,0.1834093779
638,0.1832373589
637,0.1830642223
636,0.1829698086
635,0.1826969981
634,0.182613343
633,0.1825704575
632,0.1822522432
631,0.1823023409
630,0.182179898
629,0.1820745021
628,0.1820489913
627,0.1818700284
626,0.1818199456
625,0.1817169189
624,0.1817219555
623,0.1815235913
622,0.1814135164
621,0.1815325469
620,0.181437999
619,0.1812469959
618,0.1812667549
617,0.1812904477
616,0.1811967492
615,0.1814613044
614,0.1812733263
613,0.1814032495
612,0.1814413369
611,0.181447506
610,0.1816519797
609,0.181667164
608,0.1817979962
607,0.1819375604
606,0.1820648611
605,0.182142064
604,0.1825085133
603,0.1827150136
602,0.1830171198
601,0.1833208501
600,0.1833714247
599,0.1838435829
598,0.1840281337
597,0.1843158752
596,0.1844691634
595,0.1846811175
594,0.185047254
593,0.1852713525
592,0.1854525059
591,0.1855154335
590,0.18580167
589,0.1858884841
588,0.1861029863
587,0.1861568391
586,0.1864263117
585,0.1864916533
584,0.1866470128
583,0.1867283881
582,0.1865532994
581,0.186729148
580,0.1866749823
579,0.1870468706
578,0.1870571971
577,0.1871719658
576,0.1873469055
575,0.1875232309
574,0.1878660917
573,0.1881199777
572,0.1883854121
571,0.1888246089
570,0.189206183
569,0.1894633472
568,0.1901614219
567,0.1905754954
566,0.191093877
565,0.1915425509
564,0.1919161379
563,0.192490086
562,0.1928840876
561,0.1934299022
560,0.193981573
559,0.1940999329
558,0.1946133226
557,0.1950424761
556,0.1953226775
555,0.1953043342
554,0.1955648959
553,0.1955055296
552,0.1957607567
551,0.1954852641
550,0.1953250766
549,0.1953062415
548,0.1950465292
547,0.1949281991
546,0.1946755201
545,0.1945681423
544,0.1944508106
543,0.1943354756
542,0.1943663657
541,0.1943725646
540,0.1943549514
539,0.1945236921
538,0.1948210299
537,0.1948865056
536,0.1951295286
535,0.1957654655
534,0.1959485412
533,0.1962516606
532,0.19663091
531,0.1972917169
530,0.1976172775
529,0.1980198473
528,0.198274523
527,0.1988874227
526,0.1993439794
525,0.1995970458
524,0.1999069899
523,0.1999237239
522,0.2002805322
521,0.200321421
520,0.2005302906
519,0.2006287575
518,0.2005694807
517,0.200400874
516,0.2006333619
515,0.2006500512
514,0.2006983608
513,0.2007166892
512,0.2009257972
511,0.2010568827
510,0.2012501806
509,0.2014966607
508,0.2017292827
507,0.2018823773
506,0.2021823227
505,0.2027750015
504,0.2029802948
503,0.2036468387
502,0.2043295205
501,0.2045296729
500,0.2052767426
499,0.2059850842
498,0.2064598203
497,0.2067478299
496,0.2074317783
495,0.2079430372
494,0.2084652334
493,0.2084623426
492,0.2086241841
491,0.2086603492
490,0.2088982612
489,0.2086358219
488,0.2082392126
487,0.2081307173
486,0.2075200081
485,0.2071300149
484,0.2070431113
483,0.2069030255
482,0.2063139379
481,0.2064481676
480,0.2064355016
479,0.2063292563
478,0.2065476179
477,0.2068591863
476,0.2070170045
475,0.2076641321
474,0.2078349888
473,0.208766073
472,0.2092705667
471,0.2100005746
470,0.210467577
469,0.2109201103
468,0.2114531845
467,0.2117310762
466,0.2120135278
465,0.2117653489
464,0.2117108852
463,0.2114431113
462,0.2112071663
461,0.2109386623
460,0.2104938477
459,0.210246101
458,0.2098570615
457,0.2096891701
456,0.2094643265
455,0.2093786299
454,0.2094402164
453,0.2093489468
452,0.2098112255
451,0.2098331302
450,0.2104011774
449,0.2105987668
448,0.2110942304
447,0.21167548
446,0.2119142562
445,0.2123592645
444,0.2129569948
443,0.2133425027
442,0.213738665
441,0.2140244693
440,0.2144178599
439,0.2145723104
438,0.2149133384
437,0.2150216699
436,0.215288341
435,0.215747878
434,0.2156556547
433,0.2161311805
432,0.2163325399
431,0.2167919129
430,0.2169995457
429,0.2171180844
428,0.2180279046
427,0.2184575349
426,0.2187802494
425,0.2192357779
424,0.2196557373
423,0.2202840298
422,0.2211019248
421,0.2210574746
420,0.2212776691
419,0.2217857838
418,0.2216765434
417,0.2216704637
416,0.2217878252
415,0.2219703645
414,0.2222543359
413,0.2224499583
412,0.22245951
411,0.2229612619
410,0.2232986987
409,0.2238341421
408,0.2243928164
407,0.224849686
406,0.2254268527
405,0.2262469083
404,0.2267926037
403,0.2276489437
402,0.2281715423
401,0.2289103121
400,0.2292856574
399,0.2301466465
398,0.2304831445
397,0.2310399115
396,0.231092751
395,0.2312286049
394,0.2313309759
393,0.2317052931
392,0.2321110219
391,0.2324440926
390,0.2329877168
389,0.2337972671
388,0.2337969095
387,0.2342599183
386,0.2348185331
385,0.2354286909
384,0.2357990295
383,0.236724332
382,0.2376531661
381,0.238043353
380,0.2389649749
379,0.2399325371
378,0.240484044
377,0.2415343076
376,0.2421597242
375,0.243252039
374,0.2436476499
373,0.2449536622
372,0.2457443625
371,0.2467861027
370,0.2467817068
369,0.2476973981
368,0.248134762
367,0.2488171011
366,0.2492062002
365,0.2498385459
364,0.2504889369
363,0.2505401075
362,0.2513434887
361,0.251991123
360,0.2532435954
359,0.2539498508
358,0.2548958957
357,0.255865097
356,0.2574166059
355,0.2585790455
354,0.2595268488
353,0.2605337501
352,0.2613756955
351,0.2630773485
350,0.2636075616
349,0.2619593143
348,0.2637096643
347,0.2640330195
346,0.2640413046
345,0.2651127279
344,0.2658282518
343,0.2672294676
342,0.2675142884
341,0.2694195211
340,0.270398587
339,0.2721396685
338,0.2723147571
337,0.2741682231
336,0.2748650014
335,0.2769533694
334,0.277839005
333,0.27857849
332,0.279217273
331,0.2800694704
330,0.2818813622
329,0.2829012871
328,0.2842762768
327,0.2852551043
326,0.2867738008
325,0.2883838713
324,0.2892846465
323,0.2915229499
322,0.2928635478
321,0.294811666
320,0.2966889441
319,0.2984290719
318,0.3000165522
317,0.3019413352
316,0.3040303886
315,0.3045349419
314,0.3079167306
313,0.3098683953
312,0.3110901713
311,0.3125748634
310,0.3152565956
309,0.3168139756
308,0.3194411993
307,0.3219257593
306,0.3240543604
305,0.3267860711
304,0.3295339346
303,0.3312033415
302,0.3340521455
301,0.335527271
300,0.3381464779
299,0.340927273
298,0.3430031836
297,0.3454456329
296,0.3475156724
295,0.3503732383
294,0.3532319069
293,0.3558558524
292,0.3586923182
291,0.3614963293
290,0.3644682169
289,0.3671003878
288,0.3694192767
287,0.3721643686
286,0.3744782805
285,0.377355516
284,0.379620105
283,0.381559968
282,0.3841022551
281,0.3858564198
280,0.3879196346
279,0.3901152015
278,0.3909851909
277,0.393720597
276,0.3947395384
275,0.3957978189
274,0.3965028524
273,0.3970142901
272,0.3975893855
271,0.3983002901
270,0.3980848789
269,0.3981160223
268,0.3979655206
267,0.3976938128
266,0.3970727623
265,0.3963921666
264,0.3962374926
263,0.3945956528
262,0.3936639726
261,0.3919167221
260,0.3910544217
259,0.3898263276
258,0.3880649507
257,0.3863448799
256,0.3847703934
255,0.3829001188
254,0.3810389936
253,0.378051281
252,0.3765289783
251,0.3738676608
250,0.3706946075
249,0.368368715
248,0.3645427823
247,0.3612669408
246,0.3576029837
245,0.3538865149
244,0.3500336707
243,0.3462040424
242,0.3425413966
241,0.3382287621
240,0.3348324597
239,0.3315267265
238,0.3277665675
237,0.3250196576
236,0.321567595
235,0.3190611005
234,0.3163955212
233,0.3136997223
232,0.3116464317
231,0.3102961779
230,0.3080587089
229,0.306812346
228,0.3053068221
227,0.3050192595
226,0.3054693043
225,0.3063894808
224,0.3089924455
223,0.3129710853
222,0.3191161454
221,0.3266110718
220,0.3374115527
219,0.3497968018
218,0.365885675
217,0.3839329779
216,0.4041383862
215,0.4254642129
214,0.4485879838
213,0.4712131619
212,0.494051218
211,0.515083909
210,0.5349507928
209,0.5498489738
208,0.5627138615
207,0.5705415606
206,0.5789683461
205,0.580755949
204,0.5798762441
203,0.5761718154
202,0.5703523159
201,0.5632196665
200,0.5523948669
