Dodecane_KIT_Vac_140
Wavelength (nm),Abs
2655,0.07570605725
2654,0.07656145096
2653,0.07803049684
2652,0.07799551636
2651,0.07785978913
2650,0.07895877957
2649,0.07800840586
2648,0.07757169008
2647,0.07911553234
2646,0.08030427247
2645,0.07992993295
2644,0.07911112159
2643,0.07850525528
2642,0.07912578434
2641,0.07882327586
2640,0.07855898142
2639,0.07931379229
2638,0.07839637995
2637,0.07889721543
2636,0.07732216269
2635,0.07760025561
2634,0.07645404339
2633,0.07982732356
2632,0.07514354587
2631,0.07369635999
2630,0.07848993689
2629,0.07919766009
2628,0.07767996192
2627,0.07871608436
2626,0.08086815476
2625,0.07881191373
2624,0.07831604779
2623,0.07867317647
2622,0.07863802463
2621,0.07623067498
2620,0.07735807449
2619,0.07941479236
2618,0.07486948371
2617,0.07502073795
2616,0.07925326377
2615,0.0788205117
2614,0.0790809989
2613,0.07985895872
2612,0.07916299254
2611,0.07882932574
2610,0.07870156318
2609,0.08000122756
2608,0.08042148501
2607,0.07925065607
2606,0.07741719484
2605,0.07815769315
2604,0.07916606963
2603,0.07852700353
2602,0.07740274817
2601,0.07984913141
2600,0.07986807823
2599,0.0791137889
2598,0.07857026905
2597,0.076777637
2596,0.07202204317
2595,0.07571795583
2594,0.08148041368
2593,0.08011461794
2592,0.0802442655
2591,0.07963358611
2590,0.0776649192
2589,0.07712821662
2588,0.07890956849
2587,0.08231641352
2586,0.07947468758
2585,0.0765709579
2584,0.08001146466
2583,0.08124954253
2582,0.07928179204
2581,0.07954217494
2580,0.08030258864
2579,0.07942541689
2578,0.0798599869
2577,0.08150137216
2576,0.08128830791
2575,0.08052766323
2574,0.08058091998
2573,0.08078306168
2572,0.08024784178
2571,0.08024416864
2570,0.07998342812
2569,0.07975381613
2568,0.08024921268
2567,0.08045132458
2566,0.07997682691
2565,0.08038873971
2564,0.0796437189
2563,0.07802662253
2562,0.07776228338
2561,0.08050466329
2560,0.08159000427
2559,0.08135261387
2558,0.08065506071
2557,0.0806684643
2556,0.08102656156
2555,0.0805766508
2554,0.080477871
2553,0.08006739616
2552,0.07968138158
2551,0.08065914363
2550,0.08087962866
2549,0.0804445073
2548,0.0805651769
2547,0.08105102181
2546,0.08092403412
2545,0.08135064691
2544,0.08037295192
2543,0.08073648065
2542,0.08112434298
2541,0.08073685318
2540,0.08102253824
2539,0.08121284097
2538,0.08094543219
2537,0.08005251735
2536,0.08068542182
2535,0.08105541766
2534,0.0810097158
2533,0.08056551963
2532,0.08068264276
2531,0.0810623765
2530,0.08122351766
2529,0.08144175261
2528,0.08132133633
2527,0.08127919585
2526,0.08163680136
2525,0.08157613873
2524,0.08188194036
2523,0.08187553287
2522,0.08111844212
2521,0.08171369135
2520,0.08171565831
2519,0.08173883706
2518,0.08179124445
2517,0.08155921102
2516,0.08176483959
2515,0.08191501349
2514,0.08199325949
2513,0.08166538924
2512,0.08169694245
2511,0.0818278417
2510,0.08206502348
2509,0.08161268383
2508,0.08190032095
2507,0.08204679191
2506,0.08179927617
2505,0.08164542168
2504,0.08190991729
2503,0.082381621
2502,0.08221016824
2501,0.08215977997
2500,0.08223193884
2499,0.08203941584
2498,0.08208794147
2497,0.08232329786
2496,0.0823052451
2495,0.08231137693
2494,0.08198441565
2493,0.08239173144
2492,0.08219625056
2491,0.08233371377
2490,0.0825920254
2489,0.08249457181
2488,0.0825438723
2487,0.08261778951
2486,0.08264546841
2485,0.08277339488
2484,0.08306656778
2483,0.08262361586
2482,0.0825772807
2481,0.08268623799
2480,0.08253855258
2479,0.08271718025
2478,0.08282774687
2477,0.08316982538
2476,0.08286815137
2475,0.0829044655
2474,0.08276102692
2473,0.0829019621
2472,0.08331844956
2471,0.08329044282
2470,0.08324861526
2469,0.08286132663
2468,0.08327654749
2467,0.08350699395
2466,0.08320157975
2465,0.08327912539
2464,0.08371348679
2463,0.0832779929
2462,0.08315788209
2461,0.08342841268
2460,0.08347502351
2459,0.08353033662
2458,0.08357445151
2457,0.08363611996
2456,0.08352582157
2455,0.08373624086
2454,0.08382063359
2453,0.08356887102
2452,0.08371216804
2451,0.0839921236
2450,0.08388141543
2449,0.0839015469
2448,0.08398944885
2447,0.0841108039
2446,0.08413436264
2445,0.08417923748
2444,0.08436790854
2443,0.08400418609
2442,0.08438711613
2441,0.08428356797
2440,0.08418872207
2439,0.0842974931
2438,0.08462163806
2437,0.08427172154
2436,0.08437874913
2435,0.08479933441
2434,0.0845951885
2433,0.08443810791
2432,0.08470758051
2431,0.08455257118
2430,0.0846869126
2429,0.0849602893
2428,0.08483596146
2427,0.08472910523
2426,0.08517572284
2425,0.08507532626
2424,0.0848415643
2423,0.08503817767
2422,0.08517405391
2421,0.08488537371
2420,0.08523846418
2419,0.08530074358
2418,0.08498329669
2417,0.08529419452
2416,0.08546236157
2415,0.08520580083
2414,0.08542892337
2413,0.08558610827
2412,0.08533000946
2411,0.08549195528
2410,0.08584168553
2409,0.08562052995
2408,0.08570279181
2407,0.08598520607
2406,0.0856872499
2405,0.08594822139
2404,0.08615069836
2403,0.08594096452
2402,0.08598605543
2401,0.08618106693
2400,0.08617447317
2399,0.08615852892
2398,0.08635207266
2397,0.08623148501
2396,0.08623757958
2395,0.08671852946
2394,0.08659496158
2393,0.08647879213
2392,0.08673872799
2391,0.08679818362
2390,0.08659546822
2389,0.08701488376
2388,0.08704821765
2387,0.08685796708
2386,0.08709547669
2385,0.08718327433
2384,0.08706536144
2383,0.08728798479
2382,0.08735119551
2381,0.08730969578
2380,0.08741941303
2379,0.08764196187
2378,0.0875415951
2377,0.08753725886
2376,0.08774934709
2375,0.08793669194
2374,0.08773585409
2373,0.08800513297
2372,0.08815272152
2371,0.08794765919
2370,0.08812563866
2369,0.08824935555
2368,0.08839859068
2367,0.08834807575
2366,0.08841956407
2365,0.08860852569
2364,0.08855989575
2363,0.08860808611
2362,0.08899935335
2361,0.08885551244
2360,0.08878532052
2359,0.08898168802
2358,0.08943862468
2357,0.08919817954
2356,0.0891790092
2355,0.08953876048
2354,0.08946988732
2353,0.08947494626
2352,0.08965434879
2351,0.08977646381
2350,0.08981068432
2349,0.08984847367
2348,0.09008067846
2347,0.09017679095
2346,0.09011294693
2345,0.09015484154
2344,0.09050726891
2343,0.0904687196
2342,0.090394862
2341,0.09071746469
2340,0.09065399319
2339,0.09065762907
2338,0.0909126997
2337,0.09112137556
2336,0.09113072604
2335,0.09121857584
2334,0.09125514328
2333,0.09138979018
2332,0.0913380608
2331,0.09147666395
2330,0.09176195413
2329,0.0918250829
2328,0.09184289724
2327,0.09198632836
2326,0.09216440469
2325,0.0920836255
2324,0.09211882949
2323,0.09264392406
2322,0.09234889597
2321,0.09246452898
2320,0.09285015613
2319,0.09284874797
2318,0.09295390546
2317,0.0929793641
2316,0.09322784841
2315,0.09342890233
2314,0.09333068877
2313,0.0933438465
2312,0.09384536743
2311,0.09374699742
2310,0.09379765391
2309,0.09393116087
2308,0.09414996952
2307,0.09428528696
2306,0.09428181499
2305,0.09444796294
2304,0.09476110339
2303,0.09490311891
2302,0.09468583018
2301,0.09487744421
2300,0.0952340886
2299,0.09513840079
2298,0.09530187398
2297,0.0952969417
2296,0.09558856487
2295,0.09578042477
2294,0.09569845349
2293,0.09578403831
2292,0.09616664797
2291,0.09609872103
2290,0.09620860964
2289,0.09655234218
2288,0.09648736566
2287,0.09653925151
2286,0.09637007117
2285,0.09681980312
2284,0.09734426439
2283,0.09741336107
2282,0.09716793895
2281,0.09745340049
2280,0.09776641428
2279,0.09762657434
2278,0.09798333794
2277,0.09773357213
2276,0.09846000373
2275,0.09846497327
2274,0.09825465828
2273,0.09882652014
2272,0.09902085364
2271,0.09907158464
2270,0.09904218465
2269,0.09924006462
2268,0.09937183559
2267,0.09982221574
2266,0.09942039102
2265,0.09947200865
2264,0.09964829683
2263,0.0999591127
2262,0.1002697349
2261,0.1000802815
2260,0.1003178954
2259,0.100929454
2258,0.1008260995
2257,0.1008024663
2256,0.1007998511
2255,0.1009105146
2254,0.1015178636
2253,0.1016518325
2252,0.1015839577
2251,0.1018671691
2250,0.1019703075
2249,0.1022212803
2248,0.102446042
2247,0.1020113006
2246,0.1024327651
2245,0.1029683203
2244,0.1028935835
2243,0.1032052562
2242,0.1031287685
2241,0.1034474745
2240,0.1036564112
2239,0.1038269401
2238,0.1035704091
2237,0.1040108949
2236,0.1042672917
2235,0.1044655517
2234,0.1046080738
2233,0.1045000255
2232,0.1049402356
2231,0.1053536683
2230,0.105248265
2229,0.1053522155
2228,0.1054665446
2227,0.1059286147
2226,0.1061600298
2225,0.1061439961
2224,0.1062708423
2223,0.1064847708
2222,0.1066973209
2221,0.1072062925
2220,0.1071448997
2219,0.1073481962
2218,0.1076019257
2217,0.1077314168
2216,0.1080596969
2215,0.1081708595
2214,0.1083309501
2213,0.1086480469
2212,0.1091250554
2211,0.1092911959
2210,0.1091558784
2209,0.1093170643
2208,0.1096173599
2207,0.1098673791
2206,0.1100744903
2205,0.1103524119
2204,0.1104501411
2203,0.1105442271
2202,0.1109569445
2201,0.1112447008
2200,0.1111660823
2199,0.1111196727
2198,0.1114208773
2197,0.1117037833
2196,0.1120371595
2195,0.1123113409
2194,0.1121713966
2193,0.112477228
2192,0.112584196
2191,0.1126583368
2190,0.1133002639
2189,0.1133766845
2188,0.1135345027
2187,0.1136262566
2186,0.1136409193
2185,0.1141292453
2184,0.1145249009
2183,0.1146107689
2182,0.1148169488
2181,0.1147177219
2180,0.1151640937
2179,0.1153165177
2178,0.1157140061
2177,0.1160394847
2176,0.1160660237
2175,0.1162101775
2174,0.1164911762
2173,0.1169032529
2172,0.1172067374
2171,0.1172887608
2170,0.1174528599
2169,0.1177366972
2168,0.1178618148
2167,0.1182174534
2166,0.1185651496
2165,0.1187237129
2164,0.1190722585
2163,0.1191266105
2162,0.1193462908
2161,0.1195009425
2160,0.1200018674
2159,0.1201244667
2158,0.120419383
2157,0.1206371561
2156,0.1206679121
2155,0.1211385429
2154,0.1213516444
2153,0.1215476915
2152,0.1219145954
2151,0.1220577508
2150,0.1221745089
2149,0.1225876287
2148,0.1229993477
2147,0.1231558546
2146,0.1234149709
2145,0.1236480847
2144,0.1236926466
2143,0.1239307374
2142,0.1244442165
2141,0.1247180402
2140,0.1249132976
2139,0.1252441257
2138,0.1254938096
2137,0.1256750673
2136,0.1256616563
2135,0.1262280494
2134,0.1265521497
2133,0.1268626601
2132,0.1270466149
2131,0.1272849888
2130,0.1274890006
2129,0.1277836561
2128,0.1280467212
2127,0.128317222
2126,0.1286195666
2125,0.1288525313
2124,0.1292433739
2123,0.1295508891
2122,0.1297085285
2121,0.1301756799
2120,0.1304044127
2119,0.1306321472
2118,0.1308547854
2117,0.1313311309
2116,0.131602183
2115,0.13184461
2114,0.1321289986
2113,0.1325488091
2112,0.1327119321
2111,0.1330594122
2110,0.1333880872
2109,0.1337487549
2108,0.134062618
2107,0.1344925016
2106,0.1346281767
2105,0.1349207163
2104,0.135233894
2103,0.1356514841
2102,0.1357817948
2101,0.1362842321
2100,0.1364564449
2099,0.136899516
2098,0.1371199638
2097,0.1375571191
2096,0.1378729343
2095,0.1382191628
2094,0.1385075003
2093,0.1387578398
2092,0.1393482536
2091,0.139644593
2090,0.1397934705
2089,0.1402775049
2088,0.1404919475
2087,0.1409498602
2086,0.1412929595
2085,0.1415128261
2084,0.1418740451
2083,0.1423789561
2082,0.1427858174
2081,0.1430737972
2080,0.1432643831
2079,0.1437578946
2078,0.1442330629
2077,0.1444378048
2076,0.1448747963
2075,0.1451310366
2074,0.1455459297
2073,0.1458845586
2072,0.1462562233
2071,0.1466381848
2070,0.1469521224
2069,0.1474602669
2068,0.1478548646
2067,0.1483053267
2066,0.1485424936
2065,0.1488661468
2064,0.1493270397
2063,0.1496111006
2062,0.1501180977
2061,0.1504711509
2060,0.1507525891
2059,0.1511588395
2058,0.1515798122
2057,0.1519823223
2056,0.1522386074
2055,0.1528039575
2054,0.1530946046
2053,0.1536098868
2052,0.1540532559
2051,0.1541596353
2050,0.1547171772
2049,0.15495947
2048,0.1555773765
2047,0.1557250768
2046,0.1562060267
2045,0.1566478908
2044,0.1570165604
2043,0.1574168801
2042,0.1580484211
2041,0.1583386511
2040,0.1584743559
2039,0.15911901
2038,0.1593959779
2037,0.1597830206
2036,0.1602229029
2035,0.1606525779
2034,0.1610918641
2033,0.1615369767
2032,0.1618630588
2031,0.162256375
2030,0.1627022177
2029,0.1630597413
2028,0.1633815467
2027,0.1637350619
2026,0.1643602252
2025,0.164642185
2024,0.1652321368
2023,0.1653918624
2022,0.1657786816
2021,0.1662872285
2020,0.166672796
2019,0.1671902984
2018,0.1674740314
2017,0.1678574532
2016,0.1684672385
2015,0.1688053012
2014,0.1690679938
2013,0.169574216
2012,0.1699351072
2011,0.1703705192
2010,0.170720458
2009,0.1711034477
2008,0.1715652496
2007,0.1718805283
2006,0.1722837985
2005,0.1727013439
2004,0.1731670052
2003,0.1733221859
2002,0.1738853157
2001,0.1742150486
2000,0.1746616662
1999,0.1750908494
1998,0.1754751205
1997,0.1759269536
1996,0.1762171537
1995,0.1766975224
1994,0.1769859642
1993,0.177544713
1992,0.177906245
1991,0.1781423241
1990,0.1785887927
1989,0.1789603829
1988,0.1792204231
1987,0.1797343045
1986,0.1800282449
1985,0.1804053783
1984,0.1808825582
1983,0.1810978651
1982,0.181489259
1981,0.1819464564
1980,0.1821814328
1979,0.1826425493
1978,0.1830075681
1977,0.1833616346
1976,0.1837351322
1975,0.1841139495
1974,0.184427768
1973,0.1848126203
1972,0.1852345467
1971,0.1855499297
1970,0.1858359426
1969,0.1862757504
1968,0.1865548491
1967,0.1868106425
1966,0.1873406172
1965,0.1876533329
1964,0.1880805045
1963,0.1882668734
1962,0.1886389256
1961,0.1890753508
1960,0.1893201023
1959,0.1896717399
1958,0.1901056767
1957,0.1905114204
1956,0.1907714456
1955,0.1910718083
1954,0.1914756894
1953,0.1917918026
1952,0.1922543347
1951,0.1924343109
1950,0.1928920895
1949,0.1932017207
1948,0.1936099231
1947,0.1938378662
1946,0.1941167265
1945,0.1946106851
1944,0.194874391
1943,0.1953312904
1942,0.1955817044
1941,0.1958878934
1940,0.1963638067
1939,0.1967278421
1938,0.1970411986
1937,0.1974489987
1936,0.1978412569
1935,0.1979907751
1934,0.198466301
1933,0.1987890154
1932,0.1991676241
1931,0.1994398832
1930,0.1998493671
1929,0.2003391981
1928,0.2006151229
1927,0.2011535466
1926,0.2013148218
1925,0.2015694082
1924,0.2021044493
1923,0.2024164349
1922,0.2024085969
1921,0.2029646039
1920,0.2039785683
1919,0.2040447295
1918,0.2041322887
1917,0.2044373155
1916,0.2048688382
1915,0.2052551061
1914,0.205774039
1913,0.2060984373
1912,0.2062733471
1911,0.2068670541
1910,0.207213223
1909,0.2074332833
1908,0.2076074779
1907,0.2078847885
1906,0.2088363618
1905,0.2092286944
1904,0.209298566
1903,0.2097343206
1902,0.2099378556
1901,0.2100908011
1900,0.2108799815
1899,0.2113281041
1898,0.2115295976
1897,0.2119574845
1896,0.2121045589
1895,0.2123452574
1894,0.2127282172
1893,0.2131965607
1892,0.2132053226
1891,0.2135907412
1890,0.2144031823
1889,0.2146256417
1888,0.2147970945
1887,0.2150967568
1886,0.2154735327
1885,0.2155812383
1884,0.2162443697
1883,0.2165597826
1882,0.2167171985
1881,0.2170683742
1880,0.2173232734
1879,0.2174992263
1878,0.2178068608
1877,0.2181268334
1876,0.2184974253
1875,0.218502
1874,0.2187320143
1873,0.2192416191
1872,0.2197131366
1871,0.2198219448
1870,0.220329687
1869,0.2202436626
1868,0.2208902389
1867,0.2213243395
1866,0.22098203
1865,0.2212294638
1864,0.2216186672
1863,0.221721828
1862,0.2217428684
1861,0.2218481302
1860,0.2226366401
1859,0.2227637768
1858,0.2227472961
1857,0.2230452746
1856,0.223097533
1855,0.2230336815
1854,0.2235965729
1853,0.2240117043
1852,0.2238856405
1851,0.223716706
1850,0.2237479538
1849,0.2238016427
1848,0.2245122194
1847,0.2248590589
1846,0.2246590555
1845,0.2244815379
1844,0.2244561017
1843,0.2243548483
1842,0.2249341458
1841,0.2250130177
1840,0.2250580788
1839,0.2250253558
1838,0.2248616666
1837,0.2251182795
1836,0.2251701057
1835,0.2253257632
1834,0.2251512706
1833,0.2249732912
1832,0.2250310034
1831,0.2250485271
1830,0.2251715809
1829,0.2251866609
1828,0.2250606865
1827,0.2248395234
1826,0.2250611186
1825,0.2248502523
1824,0.2247546911
1823,0.2247079462
1822,0.2245876342
1821,0.224750042
1820,0.22460334
1819,0.2243214846
1818,0.2241704315
1817,0.2239624113
1816,0.2239415199
1815,0.2239388227
1814,0.2236988991
1813,0.2234893739
1812,0.2235540301
1811,0.2232026011
1810,0.2230636179
1809,0.2229567319
1808,0.2226053029
1807,0.2225659341
1806,0.2224112898
1805,0.2221681476
1804,0.2219417542
1803,0.2217213959
1802,0.221594438
1801,0.2214054912
1800,0.2211072147
1799,0.22079283
1798,0.2206728607
1797,0.2203542739
1796,0.2202316672
1795,0.2197990119
1794,0.2196785808
1793,0.2194599956
1792,0.2191230506
1791,0.2188944221
1790,0.2185419947
1789,0.2184067965
1788,0.2181491703
1787,0.2178633362
1786,0.2175678313
1785,0.2172576636
1784,0.2169643044
1783,0.2166423351
1782,0.2165038139
1781,0.2161304951
1780,0.2158862948
1779,0.2155825049
1778,0.2152620256
1777,0.2150119841
1776,0.2146855146
1775,0.2143437266
1774,0.2141563445
1773,0.2137827873
1772,0.2134673148
1771,0.2131506354
1770,0.2126449943
1769,0.212498799
1768,0.2121119797
1767,0.2119829059
1766,0.2115022242
1765,0.2112721801
1764,0.2109193057
1763,0.2105801404
1762,0.21028395
1761,0.2099386901
1760,0.2095666081
1759,0.2092920691
1758,0.2090042979
1757,0.2087668777
1756,0.2082929015
1755,0.2080369741
1754,0.2077197134
1753,0.2073555291
1752,0.2069801539
1751,0.2067781985
1750,0.2064225972
1749,0.2060708106
1748,0.2056955099
1747,0.2053978145
1746,0.2050877064
1745,0.2047440112
1744,0.2044180036
1743,0.2040387243
1742,0.2037232965
1741,0.2034027278
1740,0.203040123
1739,0.20274131
1738,0.202491805
1737,0.2021035701
1736,0.2017682493
1735,0.201478228
1734,0.2010235786
1733,0.2006418258
1732,0.2003352195
1731,0.2000596821
1730,0.1996135712
1729,0.1992999464
1728,0.1988777965
1727,0.1985661387
1726,0.1982719898
1725,0.1978468448
1724,0.1974350512
1723,0.1971830726
1722,0.1967808604
1721,0.1964568645
1720,0.1960475296
1719,0.19568865
1718,0.1953106672
1717,0.1948698908
1716,0.1945799291
1715,0.1941754222
1714,0.193725273
1713,0.1934078336
1712,0.1930589229
1711,0.1925515383
1710,0.1922593713
1709,0.1918608099
1708,0.1914560199
1707,0.1910790056
1706,0.1907223612
1705,0.1902039796
1704,0.1898949146
1703,0.1893798709
1702,0.1889533848
1701,0.1886906028
1700,0.188206777
1699,0.1878359616
1698,0.1874302477
1697,0.1869852394
1696,0.18658337
1695,0.1862447113
1694,0.1857890487
1693,0.1854249835
1692,0.1850076616
1691,0.184601441
1690,0.1842095703
1689,0.1837601364
1688,0.1832680255
1687,0.1828553528
1686,0.1824574023
1685,0.1819967926
1684,0.1815790683
1683,0.1812542975
1682,0.1807918251
1681,0.1805112809
1680,0.1799049824
1679,0.1795334518
1678,0.1791359931
1677,0.1787617058
1676,0.1783570349
1675,0.1779319495
1674,0.1774832755
1673,0.1770663261
1672,0.1767664552
1671,0.1763662845
1670,0.1759604514
1669,0.1755912602
1668,0.1751207113
1667,0.1747548282
1666,0.1744054556
1665,0.1739970148
1664,0.173514843
1663,0.1730828583
1662,0.1726365536
1661,0.172248885
1660,0.1719178408
1659,0.1715137213
1658,0.1711152345
1657,0.1706937253
1656,0.1702682972
1655,0.1699524075
1654,0.169501245
1653,0.1691340953
1652,0.1687052697
1651,0.168358326
1650,0.1679461896
1649,0.1675279737
1648,0.1671509743
1647,0.1667226851
1646,0.1663636565
1645,0.1659953892
1644,0.1655863225
1643,0.1651412994
1642,0.1647432745
1641,0.1644068956
1640,0.1639845967
1639,0.1635988802
1638,0.1632262468
1637,0.1627981961
1636,0.1624944806
1635,0.1621160209
1634,0.1616675556
1633,0.1612554044
1632,0.1608884931
1631,0.160479188
1630,0.1601900607
1629,0.1597639173
1628,0.1594405621
1627,0.1590640098
1626,0.1586840153
1625,0.1584133506
1624,0.1579905003
1623,0.1575369686
1622,0.1572566777
1621,0.1568654478
1620,0.1565315425
1619,0.1561612189
1618,0.1558367163
1617,0.1554456204
1616,0.155094713
1615,0.1548136324
1614,0.1544750631
1613,0.1540231705
1612,0.1537844986
1611,0.1534110904
1610,0.1531680822
1609,0.1528204083
1608,0.1524687111
1607,0.1521960795
1606,0.1517833918
1605,0.1514646411
1604,0.1512453705
1603,0.1509263813
1602,0.1506004184
1601,0.1503160149
1600,0.1499888897
1599,0.1497976333
1598,0.149460867
1597,0.1491427124
1596,0.1489487588
1595,0.1486572325
1594,0.1483295411
1593,0.1481122822
1592,0.147868067
1591,0.1475770772
1590,0.1474066824
1589,0.1471199989
1588,0.1468768567
1587,0.1465943307
1586,0.146401152
1585,0.146166116
1584,0.1459321529
1583,0.1456968039
1582,0.1454966664
1581,0.1452850252
1580,0.1450210661
1579,0.1448512673
1578,0.1445980072
1577,0.1444074512
1576,0.1441909224
1575,0.1440265328
1574,0.1438657939
1573,0.1435809284
1572,0.1433792114
1571,0.1432304084
1570,0.1430405825
1569,0.1428658813
1568,0.1426857114
1567,0.1425082088
1566,0.1423234791
1565,0.1421700418
1564,0.1419747621
1563,0.1418129057
1562,0.1416683942
1561,0.1414967477
1560,0.1413464397
1559,0.141183123
1558,0.1409793347
1557,0.1408426613
1556,0.1407197714
1555,0.1405251026
1554,0.1404372901
1553,0.1402569413
1552,0.1400764287
1551,0.1399611384
1550,0.1398507953
1549,0.1397010386
1548,0.1395725906
1547,0.1394076496
1546,0.1392682642
1545,0.1391807348
1544,0.1390756071
1543,0.1389198154
1542,0.1387632489
1541,0.1385900527
1540,0.1385518759
1539,0.138453275
1538,0.1382969171
1537,0.1382029951
1536,0.1381314397
1535,0.1380199194
1534,0.1379466206
1533,0.1378261447
1532,0.1376874596
1531,0.1375646889
1530,0.1375118196
1529,0.1374153346
1528,0.1373157352
1527,0.1371725351
1526,0.1370855719
1525,0.1369684935
1524,0.1369173676
1523,0.1368445307
1522,0.1367042959
1521,0.136643827
1520,0.1365236491
1519,0.1364523619
1518,0.136427775
1517,0.1363267154
1516,0.1362268031
1515,0.1361433566
1514,0.1360810995
1513,0.1360740811
1512,0.1358949095
1511,0.1358423531
1510,0.1357969791
1509,0.1357241571
1508,0.1356904656
1507,0.1356035471
1506,0.1354647726
1505,0.1354019791
1504,0.1353563368
1503,0.1353657693
1502,0.1352749169
1501,0.1351675242
1500,0.1350676715
1499,0.1351109892
1498,0.1350179613
1497,0.1349631399
1496,0.1349238604
1495,0.1348270029
1494,0.1348320097
1493,0.1347426921
1492,0.1347205192
1491,0.1346256435
1490,0.1346016079
1489,0.1344818771
1488,0.134546876
1487,0.1344838291
1486,0.1344416589
1485,0.1342944652
1484,0.1343155205
1483,0.134266153
1482,0.1342635751
1481,0.1341980994
1480,0.1340942085
1479,0.1341295242
1478,0.1340440512
1477,0.13404423
1476,0.1340023577
1475,0.1339579821
1474,0.1338801533
1473,0.133923918
1472,0.133844927
1471,0.1337805539
1470,0.133762911
1469,0.1337167025
1468,0.1337282509
1467,0.1336298883
1466,0.1335904598
1465,0.1336352527
1464,0.1335541308
1463,0.1335617006
1462,0.1334777772
1461,0.133449018
1460,0.1334189922
1459,0.133392036
1458,0.1333027184
1457,0.1332812905
1456,0.1332900524
1455,0.1332819313
1454,0.1332452595
1453,0.1331654489
1452,0.1331479251
1451,0.1331059784
1450,0.1331328452
1449,0.1330831796
1448,0.1330710799
1447,0.1330423504
1446,0.1329895109
1445,0.1329841316
1444,0.1329565644
1443,0.1329181343
1442,0.1329010427
1441,0.1328710616
1440,0.132848084
1439,0.1327749044
1438,0.132811591
1437,0.1327731162
1436,0.1327518821
1435,0.1327012479
1434,0.1326756328
1433,0.1326589137
1432,0.1326246858
1431,0.1326237023
1430,0.1325603426
1429,0.1324886829
1428,0.1325423121
1427,0.1325148195
1426,0.1325133741
1425,0.132401675
1424,0.1323899031
1423,0.1324254125
1422,0.132361114
1421,0.1323036402
1420,0.1323203146
1419,0.1322903782
1418,0.1323096901
1417,0.132239297
1416,0.1322098225
1415,0.1322299689
1414,0.1321137995
1413,0.1321881711
1412,0.1321393847
1411,0.1320617348
1410,0.1320534199
1409,0.1320660561
1408,0.1320418715
1407,0.1320406199
1406,0.1320301592
1405,0.1319627762
1404,0.1319905818
1403,0.1319058388
1402,0.1318787336
1401,0.1319836378
1400,0.1319891512
1399,0.13187778
1398,0.1317847818
1397,0.1317861974
1396,0.1318812966
1395,0.1318480521
1394,0.1317241341
1393,0.1317299902
1392,0.1318373084
1391,0.131676212
1390,0.1315813959
1389,0.131595552
1388,0.1316186935
1387,0.1315487325
1386,0.1315721124
1385,0.1314791143
1384,0.1315144002
1383,0.1315547973
1382,0.1316611022
1381,0.1315752715
1380,0.1315461397
1379,0.1314022094
1378,0.1314324737
1377,0.1314519942
1376,0.1314237863
1375,0.1313290745
1374,0.1312828362
1373,0.1311752945
1372,0.1312476099
1371,0.1312238276
1370,0.1311660111
1369,0.1311350614
1368,0.1311379075
1367,0.1311572343
1366,0.1310863346
1365,0.1310432404
1364,0.1310694963
1363,0.1309754401
1362,0.131154567
1361,0.1311387718
1360,0.1310420483
1359,0.1309593767
1358,0.1309458017
1357,0.1309077293
1356,0.1308727115
1355,0.1308811009
1354,0.1309207082
1353,0.1309146881
1352,0.1307915449
1351,0.1308639199
1350,0.1308878511
1349,0.1308341175
1348,0.1308268309
1347,0.1308195591
1346,0.1308413893
1345,0.1308003813
1344,0.1308304816
1343,0.1307640374
1342,0.1308056712
1341,0.1308100075
1340,0.130798012
1339,0.1308200806
1338,0.1308107823
1337,0.1308245659
1336,0.130813852
1335,0.1308022738
1334,0.1308343261
1333,0.1308346093
1332,0.1308099777
1331,0.1308200508
1330,0.1308570951
1329,0.1308298856
1328,0.130863294
1327,0.1309000403
1326,0.1308460385
1325,0.1308841407
1324,0.1308789402
1323,0.1308943629
1322,0.1308733672
1321,0.1309325695
1320,0.1310094595
1319,0.1309745312
1318,0.1309648007
1317,0.1309865415
1316,0.1310053319
1315,0.1310924292
1314,0.1310795099
1313,0.1310768127
1312,0.1310721636
1311,0.1311458796
1310,0.1311741024
1309,0.1312336326
1308,0.1311552674
1307,0.1312556267
1306,0.1312929243
1305,0.1313075274
1304,0.1313540787
1303,0.1314288974
1302,0.1314133853
1301,0.1315223575
1300,0.1315485686
1299,0.1315485239
1298,0.1316073686
1297,0.1316573173
1296,0.1316591352
1295,0.1317732483
1294,0.1318009198
1293,0.1318401247
1292,0.1318782419
1291,0.1319189966
1290,0.132090196
1289,0.1320823282
1288,0.132081598
1287,0.1321823001
1286,0.1322202086
1285,0.132299155
1284,0.1324023753
1283,0.1324764639
1282,0.1325411946
1281,0.1326452494
1280,0.1327156574
1279,0.1327393353
1278,0.1328187585
1277,0.1329157501
1276,0.1329470277
1275,0.1330588758
1274,0.1331723481
1273,0.1332624704
1272,0.133330062
1271,0.1335013956
1270,0.1335135698
1269,0.1336664408
1268,0.1337089539
1267,0.1338234246
1266,0.1339417398
1265,0.1340401769
1264,0.1341871768
1263,0.1342779994
1262,0.1343261003
1261,0.1344866753
1260,0.1346073896
1259,0.1347111017
1258,0.1348527372
1257,0.1349700689
1256,0.1351166666
1255,0.1352635473
1254,0.1353444159
1253,0.1354710013
1252,0.1356596947
1251,0.135770157
1250,0.1358888894
1249,0.1360529065
1248,0.136153087
1247,0.1363168657
1246,0.1365076303
1245,0.1366354972
1244,0.136748299
1243,0.1369631439
1242,0.1370747089
1241,0.137229979
1240,0.1373635828
1239,0.1375662088
1238,0.1377151906
1237,0.1378861964
1236,0.1380546391
1235,0.1381740421
1234,0.1384042799
1233,0.1386136264
1232,0.1387386322
1231,0.1389096528
1230,0.1391136199
1229,0.1393289864
1228,0.1395267546
1227,0.1397066861
1226,0.1398612559
1225,0.1400275379
1224,0.1402925849
1223,0.140467152
1222,0.1407284737
1221,0.1408364624
1220,0.1411014795
1219,0.1413086653
1218,0.1415473819
1217,0.141765967
1216,0.1419424564
1215,0.1422030032
1214,0.1424621791
1213,0.1427232474
1212,0.1429270059
1211,0.1431788504
1210,0.1434169859
1209,0.1436458975
1208,0.1439289898
1207,0.1442057788
1206,0.1444240212
1205,0.144671008
1204,0.1449854523
1203,0.1451764256
1202,0.1455251873
1201,0.1458056122
1200,0.1460218877
1199,0.1461295485
1198,0.1464148611
1197,0.1467229873
1196,0.1469695121
1195,0.1472936273
1194,0.147620216
1193,0.1479298919
1192,0.1481961757
1191,0.1484387219
1190,0.1487601101
1189,0.1490936428
1188,0.1494129896
1187,0.1496876478
1186,0.1499798
1185,0.1503115445
1184,0.1506598592
1183,0.1509769559
1182,0.1512838751
1181,0.1515565515
1180,0.1518835574
1179,0.1522473544
1178,0.152515009
1177,0.152877897
1176,0.1532116532
1175,0.1534745246
1174,0.1538227946
1173,0.1541324705
1172,0.1544986665
1171,0.1547809094
1170,0.1551307142
1169,0.1554211825
1168,0.1557802111
1167,0.1560791135
1166,0.1564111859
1165,0.1566857696
1164,0.1571166813
1163,0.1574287117
1162,0.1577196419
1161,0.1580353826
1160,0.158374548
1159,0.1586968899
1158,0.1590868235
1157,0.1594303548
1156,0.1597411335
1155,0.1600738168
1154,0.1604150236
1153,0.1607962698
1152,0.161110729
1151,0.161488533
1150,0.1618639529
1149,0.1622243971
1148,0.162612021
1147,0.1630262882
1146,0.1634220183
1145,0.1637849212
1144,0.164192751
1143,0.1646651775
1142,0.1650726944
1141,0.1654741168
1140,0.1658885032
1139,0.1663519591
1138,0.1669059992
1137,0.1672907025
1136,0.1677516997
1135,0.1682815552
1134,0.1687837243
1133,0.1693010479
1132,0.1697883159
1131,0.170317024
1130,0.1708146632
1129,0.1713545322
1128,0.1718862206
1127,0.172376141
1126,0.1729736626
1125,0.1735252142
1124,0.1740696728
1123,0.1746528894
1122,0.1752184778
1121,0.1757435501
1120,0.1763376445
1119,0.1769215018
1118,0.1774889231
1117,0.1780613065
1116,0.1786256582
1115,0.1791295707
1114,0.1797428429
1113,0.1803099662
1112,0.1808695495
1111,0.1813756973
1110,0.1819214225
1109,0.1824297011
1108,0.1829581708
1107,0.1835329235
1106,0.1840357631
1105,0.184490025
1104,0.1849862635
1103,0.1854387373
1102,0.1859530956
1101,0.1863803416
1100,0.1867324114
1099,0.1872122884
1098,0.1876548827
1097,0.1880312115
1096,0.1883653104
1095,0.1886962801
1094,0.1890384555
1093,0.1893782318
1092,0.1896822453
1091,0.1899632961
1090,0.1902202219
1089,0.1904748082
1088,0.1907546967
1087,0.190950498
1086,0.1911754012
1085,0.1913400143
1084,0.1915774792
1083,0.1917507797
1082,0.1919751316
1081,0.1921728104
1080,0.1922933906
1079,0.1924862862
1078,0.1926494688
1077,0.1927802563
1076,0.1930152476
1075,0.1931528449
1074,0.1933023781
1073,0.193547383
1072,0.1937137991
1071,0.1939131916
1070,0.1941404045
1069,0.1943342984
1068,0.1945322752
1067,0.1948060393
1066,0.1950935423
1065,0.1952808797
1064,0.1955189258
1063,0.1958373487
1062,0.1961172968
1061,0.1964208484
1060,0.1967345178
1059,0.1970146745
1058,0.1973156035
1057,0.1976602376
1056,0.1980827004
1055,0.198418051
1054,0.1987371892
1053,0.199110657
1052,0.1995080262
1051,0.1999199539
1050,0.2003051192
1049,0.2006203383
1048,0.2010269016
1047,0.2014109194
1046,0.2017610818
1045,0.2021542937
1044,0.2025119513
1043,0.2028361112
1042,0.2032080591
1041,0.2035649717
1040,0.2038715035
1039,0.2041534036
1038,0.2044176757
1037,0.2047934979
1036,0.2050637901
1035,0.2052738816
1034,0.2054989785
1033,0.2056818753
1032,0.2058982402
1031,0.2060739398
1030,0.2062034309
1029,0.2063018233
1028,0.2063817978
1027,0.2064980865
1026,0.2066026777
1025,0.2066883743
1024,0.2066392899
1023,0.2066374123
1022,0.2065907568
1021,0.2065759748
1020,0.2064953893
1019,0.2064437866
1018,0.2063449472
1017,0.206284672
1016,0.2060975283
1015,0.206005916
1014,0.2058456689
1013,0.2056981623
1012,0.2055673599
1011,0.205409646
1010,0.2051857561
1009,0.2050055265
1008,0.2047418505
1007,0.2045734972
1006,0.2043611854
1005,0.2041447908
1004,0.2039255351
1003,0.203611955
1002,0.2033896148
1001,0.2030831724
1000,0.2028641552
999,0.2025360912
998,0.2022490799
997,0.2019861042
996,0.2016441524
995,0.2014018297
994,0.2010277659
993,0.2007134408
992,0.200315848
991,0.200009957
990,0.1996813267
989,0.1993227154
988,0.1989613771
987,0.1986368895
986,0.1982398629
985,0.1979108602
984,0.1975090355
983,0.1971256882
982,0.1967706829
981,0.19638668
980,0.1960036606
979,0.1956291795
978,0.1953721195
977,0.1949598193
976,0.1947010159
975,0.1943243742
974,0.1940630674
973,0.1936670095
972,0.1933460981
971,0.1929787844
970,0.1927109808
969,0.1924349666
968,0.1920348257
967,0.1917910725
966,0.1915575564
965,0.1911947727
964,0.1909163743
963,0.1906097382
962,0.1903932989
961,0.1900820136
960,0.1898305416
959,0.1895634234
958,0.1892093569
957,0.1889636964
956,0.188671425
955,0.1884135306
954,0.1880693734
953,0.1877224892
952,0.1874390095
951,0.1871051788
950,0.1868073344
949,0.1864347011
948,0.1860639304
947,0.1857689172
946,0.1854010075
945,0.1850557029
944,0.1846331954
943,0.184169963
942,0.1838364601
941,0.183482483
940,0.1831911355
939,0.1828385144
938,0.1824736297
937,0.181938827
936,0.1816337705
935,0.1812130511
934,0.1808979362
933,0.1805749387
932,0.1800720394
931,0.1797937155
930,0.1793444902
929,0.1789828986
928,0.178541258
927,0.178119272
926,0.1778282672
925,0.1774024218
924,0.1769102663
923,0.1766322404
922,0.1763001531
921,0.1757337451
920,0.1754677147
919,0.1750096977
918,0.1747248322
917,0.1741725206
916,0.1736964434
915,0.1734573692
914,0.1731048673
913,0.1726016551
912,0.1722565442
911,0.171871081
910,0.1716395766
909,0.1710151732
908,0.1707487553
907,0.1706000119
906,0.1700640619
905,0.1694711894
904,0.169299975
903,0.1689911336
902,0.1687257737
901,0.1681265533
900,0.1680012196
899,0.1654594094
898,0.1604985446
897,0.163274914
896,0.1750834882
895,0.1722544283
894,0.1650368124
893,0.1614909768
892,0.1636981219
891,0.1621268988
890,0.1660436243
889,0.1681530923
888,0.165593341
887,0.1652903855
886,0.1664381176
885,0.1649891883
884,0.162393257
883,0.169301495
882,0.1652815938
881,0.1606578976
880,0.1616133898
879,0.1657681465
878,0.1646544337
877,0.1656235904
876,0.1631607413
875,0.1623618454
874,0.1659511328
873,0.1605893672
872,0.162354365
871,0.1646913141
870,0.1606197059
869,0.1611037552
868,0.1621989459
867,0.15937756
866,0.161801964
865,0.162187323
864,0.1612853855
863,0.1620784253
862,0.1595996618
861,0.1619481742
860,0.1603992581
859,0.1612731963
858,0.160740912
857,0.1615432799
856,0.1598707289
855,0.1589032263
854,0.1594177932
853,0.1596793383
852,0.1592558473
851,0.1598712951
850,0.1601875573
849,0.1598859578
848,0.1599960178
847,0.1594780833
846,0.1589123756
845,0.1592592448
844,0.1590582579
843,0.15951702
842,0.1592558473
841,0.1592053175
840,0.1589227468
839,0.1585357636
838,0.1593662351
837,0.1586362422
836,0.1593450904
835,0.1586712301
834,0.1584044844
833,0.1586968154
832,0.1591478735
831,0.1585964411
830,0.1593773663
829,0.1592748612
828,0.159437567
827,0.1588454992
826,0.1598224491
825,0.1594331563
824,0.1595794708
823,0.159830451
822,0.1602057517
821,0.1599309891
820,0.1599327177
819,0.1596613079
818,0.1605606973
817,0.1608969718
816,0.1607097983
815,0.1610360146
814,0.1611222476
813,0.1611324102
812,0.1611205637
811,0.1617628187
810,0.1621695012
809,0.1625338495
808,0.1621161848
807,0.162776053
806,0.1628479511
805,0.1634525955
804,0.1631426513
803,0.163027674
802,0.1638565212
801,0.1640271097
800,0.1641662717
799,0.1641502529
798,0.1643510759
797,0.165235728
796,0.16516909
795,0.1654666215
794,0.1653917432
793,0.1655094773
792,0.1660318524
791,0.1665742099
790,0.1668005586
789,0.1670126021
788,0.1670908034
787,0.167640835
786,0.1674062312
785,0.1677630097
784,0.1680045426
783,0.1680384576
782,0.1682599634
781,0.1686399579
780,0.168934226
779,0.1691199243
778,0.1694661379
777,0.1699571162
776,0.1699779481
775,0.1705804169
774,0.1710557789
773,0.171081841
772,0.1716496795
771,0.1718426198
770,0.1725193411
769,0.1728690565
768,0.173080191
767,0.1738446057
766,0.1736532748
765,0.1744448841
764,0.1752422601
763,0.175865829
762,0.1762309819
761,0.1767139584
760,0.1776147634
759,0.1778625399
758,0.1785334498
757,0.1787785441
756,0.1793928444
755,0.1801070422
754,0.1804852635
753,0.1807857156
752,0.1810692698
751,0.1815463156
750,0.182278946
749,0.1823778152
748,0.1829652339
747,0.1832809746
746,0.1836102307
745,0.1840020418
744,0.1842746139
743,0.1847758293
742,0.1847923845
741,0.1848279536
740,0.1852900386
739,0.185467273
738,0.1854366064
737,0.1857752204
736,0.1856395006
735,0.1858019829
734,0.1857749075
733,0.1857435405
732,0.1859855503
731,0.1858129948
730,0.1858667135
729,0.1860657185
728,0.1861416101
727,0.186162442
726,0.1863807887
725,0.1863268763
724,0.1867570728
723,0.1866605431
722,0.1867971122
721,0.1868073791
720,0.1870944202
719,0.187094748
718,0.1872383803
717,0.1874775141
716,0.1875406206
715,0.1877305806
714,0.1881401837
713,0.1883105636
712,0.1884889156
711,0.1886277795
710,0.188913703
709,0.18894054
708,0.1892331243
707,0.1893709749
706,0.1893636137
705,0.1894163787
704,0.1894552559
703,0.1895836592
702,0.189784497
701,0.1898440123
700,0.1897417754
699,0.1896895766
698,0.1897059232
697,0.1896236688
696,0.189517498
695,0.1894090921
694,0.1893264651
693,0.1892098337
692,0.1891190708
691,0.1888730824
690,0.1887384504
689,0.1886142194
688,0.1881530285
687,0.1882127672
686,0.1878825277
685,0.1879499555
684,0.187562108
683,0.1875998974
682,0.1872935593
681,0.1872267872
680,0.1869019866
679,0.1871223003
678,0.1865790337
677,0.1863984764
676,0.1864097714
675,0.1861221492
674,0.1859394014
673,0.1857607365
672,0.1854320765
671,0.1853603125
670,0.1850599051
669,0.1850564629
668,0.1847992837
667,0.1845772862
666,0.1844476759
665,0.1842504293
664,0.184041068
663,0.183897689
662,0.1838602573
661,0.183716163
660,0.183480233
659,0.1832908839
658,0.1832354665
657,0.1830349565
656,0.1829752177
655,0.1829518229
654,0.1827107519
653,0.1826932877
652,0.1823989302
651,0.1823812425
650,0.1823334247
649,0.1822477877
648,0.181997776
647,0.1819981337
646,0.1817563325
645,0.1816806942
644,0.1815958917
643,0.1815594435
642,0.1813867092
641,0.1809852272
640,0.180936262
639,0.1808450967
638,0.1808074117
637,0.1805248857
636,0.1804713011
635,0.1803042442
634,0.1801425517
633,0.1799136102
632,0.1798183024
631,0.1795392334
630,0.1795567423
629,0.1795833558
628,0.1794526726
627,0.1793176234
626,0.1791833788
625,0.1791005582
624,0.1790692508
623,0.1789808571
622,0.1789669096
621,0.1789415032
620,0.1788122207
619,0.1787038147
618,0.1785301268
617,0.1787417084
616,0.1785988212
615,0.1787594408
614,0.1786428392
613,0.1787120998
612,0.1788717806
611,0.1790441871
610,0.1788854152
609,0.1791487783
608,0.1792932451
607,0.1792445928
606,0.1795145124
605,0.1796083301
604,0.1798848212
603,0.1801132709
602,0.1803630292
601,0.1807177365
600,0.1807349175
599,0.1810832471
598,0.181403324
597,0.181658864
596,0.1818225384
595,0.1820648909
594,0.1824540049
593,0.1825326234
592,0.1827781349
591,0.182964921
590,0.1831509173
589,0.1832636148
588,0.1835562289
587,0.1835698485
586,0.1837280095
585,0.1838296652
584,0.1838069409
583,0.1839645952
582,0.1838896722
581,0.1840474755
580,0.1840124428
579,0.1843278706
578,0.1844121665
577,0.184420079
576,0.1845979244
575,0.18493177
574,0.1854240596
573,0.1854954064
572,0.185712859
571,0.18610394
570,0.1865128428
569,0.1867917329
568,0.1873349994
567,0.1877846718
566,0.188551724
565,0.1889156699
564,0.1892658174
563,0.1898324192
562,0.19031398
561,0.1908080727
560,0.1913337409
559,0.1915532947
558,0.1920113862
557,0.1923260689
556,0.192416653
555,0.1927093714
554,0.1930861026
553,0.1929423362
552,0.1930995882
551,0.1928234398
550,0.1927724779
549,0.1926124394
548,0.1925411671
547,0.1924537569
546,0.1921574175
545,0.1919622123
544,0.1919285059
543,0.1917886585
542,0.1916857362
541,0.1916134059
540,0.1917349547
539,0.1918343604
538,0.1922448575
537,0.1921235323
536,0.1925262064
535,0.1930422187
534,0.1933930814
533,0.1938507408
532,0.1938522309
531,0.1945254803
530,0.1949476153
529,0.1951838583
528,0.1955784112
527,0.1960220337
526,0.196465373
525,0.196940124
524,0.1973106712
523,0.197246626
522,0.1975857019
521,0.1977178603
520,0.1979984939
519,0.1980811954
518,0.197979182
517,0.1979630888
516,0.1980918199
515,0.1982097924
514,0.1981661618
513,0.1981590986
512,0.1983849108
511,0.1985374391
510,0.1986982822
509,0.1989008486
508,0.1991587281
507,0.1992797554
506,0.1996752173
505,0.2000801563
504,0.2003843635
503,0.2011324018
502,0.2016139328
501,0.2019978017
500,0.2025748342
499,0.2034504861
498,0.2038886845
497,0.2043366134
496,0.2050486505
495,0.2054479122
494,0.2058482468
493,0.2061867416
492,0.2063748837
491,0.2063107342
490,0.2065652758
489,0.2061544061
488,0.205969438
487,0.2057245672
486,0.2052912265
485,0.205008924
484,0.2049295753
483,0.2044071853
482,0.2040093243
481,0.2039836943
480,0.2039414197
479,0.2039699554
478,0.2041138113
477,0.2042063475
476,0.2045103163
475,0.2050181776
474,0.2055257261
473,0.2062567919
472,0.2067552358
471,0.2073947191
470,0.2078810781
469,0.2083916068
468,0.208859235
467,0.209082678
466,0.2095694542
465,0.2093818933
464,0.2094667107
463,0.2092515826
462,0.2090536505
461,0.2084749788
460,0.2080752105
459,0.2076579481
458,0.2075297385
457,0.2072614431
456,0.2068089098
455,0.2069884092
454,0.2069962025
453,0.2069477141
452,0.20722574
451,0.2075168043
450,0.2079519331
449,0.2084071636
448,0.2086325139
447,0.2091287673
446,0.2095073909
445,0.209938392
444,0.2103553712
443,0.2108373195
442,0.2113545835
441,0.2115624696
440,0.2120293081
439,0.2122557759
438,0.2124009281
437,0.2125614583
436,0.2130759209
435,0.2128141969
434,0.2132512927
433,0.2135933638
432,0.2137955874
431,0.2139764577
430,0.2145192325
429,0.2146374434
428,0.2155210674
427,0.2159903497
426,0.2161077112
425,0.2166758925
424,0.2171556801
423,0.2179195136
422,0.2184670717
421,0.2186718732
420,0.2190942466
419,0.2191349715
418,0.2191487849
417,0.2189502269
416,0.2193302214
415,0.2193071544
414,0.2194859982
413,0.2200510502
412,0.2201755792
411,0.2202250063
410,0.2206458896
409,0.221295476
408,0.2218562365
407,0.2223481387
406,0.2228772342
405,0.223661378
404,0.2241404504
403,0.2250320464
402,0.2253280729
401,0.2261171341
400,0.2267462164
399,0.2274951935
398,0.2275395244
397,0.2282476723
396,0.2283848673
395,0.2284553498
394,0.2287267596
393,0.228867352
392,0.2293625176
391,0.2297111899
390,0.229999572
389,0.2307418585
388,0.2309681773
387,0.2314326316
386,0.2319609374
385,0.2323118448
384,0.232976079
383,0.2339678556
382,0.2347039133
381,0.235636577
380,0.2361249626
379,0.2371104211
378,0.2379161119
377,0.2389517725
376,0.2393346578
375,0.240133673
374,0.2408957183
373,0.2419980913
372,0.2427660376
371,0.2436614931
370,0.2443255633
369,0.2449367791
368,0.2451770306
367,0.2460599989
366,0.2463337928
365,0.2473110557
364,0.2475209087
363,0.2477139682
362,0.2486261725
361,0.2490167916
360,0.2499248236
359,0.2508619726
358,0.2519606948
357,0.2532188892
356,0.2548217773
355,0.2559081614
354,0.2564016283
353,0.2576308846
352,0.2588275969
351,0.2600872517
350,0.2607660294
349,0.2597064078
348,0.2596465647
347,0.2612211108
346,0.2616043389
345,0.2630134821
344,0.2635804117
343,0.2650255859
342,0.2656071186
341,0.2661811113
340,0.2669942975
339,0.2681807876
338,0.2693400979
337,0.2716084719
336,0.2729441226
335,0.2740838826
334,0.2746387422
333,0.275481075
332,0.2770281732
331,0.2786525786
330,0.2787058949
329,0.2803393304
328,0.2812837958
327,0.2826387882
326,0.2837425172
325,0.2856566012
324,0.2862576246
323,0.288921684
322,0.289824903
321,0.2920482159
320,0.2931294143
319,0.2959273756
318,0.2972022891
317,0.2989102006
316,0.3001942635
315,0.3021771312
314,0.3048977256
313,0.3066852689
312,0.3081228137
311,0.3100563586
310,0.312528193
309,0.3137171566
308,0.3163817823
307,0.3189974725
306,0.3213850558
305,0.3235883117
304,0.3263624907
303,0.32839939
302,0.3310124874
301,0.3331966698
300,0.3353841007
299,0.3374253511
298,0.3405792415
297,0.3419308066
296,0.344922483
295,0.3473947346
294,0.3503498137
293,0.353479445
292,0.3564100266
291,0.3587740958
290,0.361197412
289,0.363774538
288,0.3664791584
287,0.3696704805
286,0.3717913032
285,0.3742600083
284,0.3766027689
283,0.3787836432
282,0.3814748526
281,0.3825535178
280,0.3848879933
279,0.3865971267
278,0.3879825175
277,0.3907360733
276,0.3911008239
275,0.392342478
274,0.3932934403
273,0.3939844668
272,0.3948540092
271,0.3948727846
270,0.3954177499
269,0.3946106732
268,0.3945308924
267,0.3942459524
266,0.3933105767
265,0.3931594193
264,0.3925485909
263,0.3910993338
262,0.3903989494
261,0.3890372217
260,0.3877571225
259,0.3863917589
258,0.3845883608
257,0.3829420805
256,0.3815359473
255,0.379309386
254,0.3775920272
253,0.3748874366
252,0.3727919757
251,0.3702284694
250,0.3672680855
249,0.3644934595
248,0.3614118993
247,0.3580631614
246,0.3542156518
245,0.3500423729
244,0.3457353711
243,0.3422157764
242,0.3382219672
241,0.3343354762
240,0.3303812146
239,0.3269845545
238,0.3234835863
237,0.3203166425
236,0.317358613
235,0.3145714998
234,0.3116595745
233,0.3088726997
232,0.3067222238
231,0.3052344918
230,0.3029419482
229,0.3019524813
228,0.2999478579
227,0.2996934354
226,0.299582541
225,0.3005822897
224,0.3021612763
223,0.3063215017
222,0.3118399978
221,0.3193315268
220,0.330024451
219,0.3420880139
218,0.3583512008
217,0.3756842613
216,0.3959020376
215,0.4187202156
214,0.4414348304
213,0.4653798938
212,0.4887090921
211,0.5099338889
210,0.529902041
209,0.5469118357
208,0.5615290999
207,0.5690722466
206,0.5770106316
205,0.5782723427
204,0.5773643851
203,0.5729241967
202,0.5680901408
201,0.5590510368
200,0.548309207
