Dodecane_KIT_N2_D
Wavelength (nm),Abs
2655,0.08026248217
2654,0.07947838306
2653,0.08070836216
2652,0.07978256047
2651,0.07969176769
2650,0.08105722815
2649,0.08118824661
2648,0.08153591305
2647,0.0809526369
2646,0.08130210638
2645,0.08300802857
2644,0.08167429268
2643,0.08156333119
2642,0.08110393584
2641,0.08115651459
2640,0.08138848841
2639,0.08104075491
2638,0.08115576208
2637,0.08186581731
2636,0.08042313159
2635,0.07969895005
2634,0.0802398771
2633,0.08063878864
2632,0.07858373225
2631,0.07726831734
2630,0.08128865063
2629,0.08133397996
2628,0.08034295589
2627,0.08063972741
2626,0.0827498436
2625,0.08153809607
2624,0.08081158996
2623,0.08148887753
2622,0.07983954996
2621,0.07753632218
2620,0.08102160692
2619,0.08225387335
2618,0.07911652327
2617,0.07850721478
2616,0.08225537091
2615,0.08104952425
2614,0.08168444037
2613,0.08177399635
2612,0.08143610507
2611,0.08063835651
2610,0.08226300776
2609,0.08312916756
2608,0.08234979957
2607,0.08191904426
2606,0.07878628373
2605,0.08130697906
2604,0.08148434758
2603,0.07967370003
2602,0.07955286652
2601,0.08206117898
2600,0.08220306784
2599,0.08095753193
2598,0.08152700961
2597,0.07985781133
2596,0.07928179204
2595,0.08240982145
2594,0.08208435029
2593,0.08438579738
2592,0.08316621929
2591,0.08142068237
2590,0.0804079622
2589,0.08188243955
2588,0.08354002982
2587,0.08394347131
2586,0.08095619082
2585,0.07894405723
2584,0.08247682452
2583,0.08161015809
2582,0.07964652032
2581,0.08232439309
2580,0.0833414942
2579,0.08189660311
2578,0.08255670965
2577,0.08369299024
2576,0.08305519074
2575,0.08161665499
2574,0.08241185546
2573,0.08279651403
2572,0.08177083731
2571,0.081126526
2570,0.08070976287
2569,0.08220397681
2568,0.08184531331
2567,0.0820569247
2566,0.08192776889
2565,0.0811855942
2564,0.08081851155
2563,0.08016720414
2562,0.08007355779
2561,0.08249019086
2560,0.08355063945
2559,0.08249169588
2558,0.08245435357
2557,0.08233418316
2556,0.08246530592
2555,0.08223728836
2554,0.0810546726
2553,0.08155827224
2552,0.08193305135
2551,0.08343236148
2550,0.08289629221
2549,0.08258838952
2548,0.08276281506
2547,0.08324199915
2546,0.08249081671
2545,0.08257117122
2544,0.08242966235
2543,0.08281098306
2542,0.0828441605
2541,0.08255511522
2540,0.08275689185
2539,0.08327347785
2538,0.08283893019
2537,0.08205533028
2536,0.08287329227
2535,0.0824707821
2534,0.08262320608
2533,0.08252161741
2532,0.08209229261
2531,0.08306039125
2530,0.08360649645
2529,0.08307430893
2528,0.08290982246
2527,0.0825272873
2526,0.08312289417
2525,0.08298896998
2524,0.08308885247
2523,0.08304425329
2522,0.08286307752
2521,0.08340093493
2520,0.08331032097
2519,0.08320336789
2518,0.08322970569
2517,0.08347907662
2516,0.0832965225
2515,0.08350266516
2514,0.0836943686
2513,0.08345319331
2512,0.08342991769
2511,0.0834915936
2510,0.08371537179
2509,0.08341225237
2508,0.08372745663
2507,0.08340635896
2506,0.08351044357
2505,0.0834140107
2504,0.08340328187
2503,0.08385943621
2502,0.08393725008
2501,0.0837367177
2500,0.08401831985
2499,0.08393801004
2498,0.08372133225
2497,0.08385576308
2496,0.08380439878
2495,0.08379658312
2494,0.08394865692
2493,0.08401222527
2492,0.08395911008
2491,0.08409996331
2490,0.08432129025
2489,0.08420562744
2488,0.08444367349
2487,0.08441258222
2486,0.0842693001
2485,0.08438652009
2484,0.08445549756
2483,0.08449401706
2482,0.08438221365
2481,0.08444370329
2480,0.08440557122
2479,0.08444908261
2478,0.08463327587
2477,0.08466687799
2476,0.0843052268
2475,0.08467492461
2474,0.08459116518
2473,0.08472435176
2472,0.08526108414
2471,0.08493541926
2470,0.08485824615
2469,0.08485484868
2468,0.08498685807
2467,0.08515883982
2466,0.08491162211
2465,0.08473558724
2464,0.08527809381
2463,0.08511891216
2462,0.08501128852
2461,0.08550878614
2460,0.0852573961
2459,0.08536073565
2458,0.08533807844
2457,0.08535099775
2456,0.08513940871
2455,0.08555609733
2454,0.08572089672
2453,0.0854254514
2452,0.08556252718
2451,0.08570843935
2450,0.0856776312
2449,0.08565663546
2448,0.08561880141
2447,0.08568756282
2446,0.08587729931
2445,0.08588565886
2444,0.08595973998
2443,0.08596318215
2442,0.08621393144
2441,0.08606753498
2440,0.08605437726
2439,0.08615645021
2438,0.08618807793
2437,0.08623673022
2436,0.08600129187
2435,0.08640497178
2434,0.08640137315
2433,0.08617153764
2432,0.08651727438
2431,0.08634512872
2430,0.08649553359
2429,0.08664103597
2428,0.08671435714
2427,0.08668031543
2426,0.08679846674
2425,0.08704569191
2424,0.08661702275
2423,0.08683378249
2422,0.08710012585
2421,0.08698714525
2420,0.08711499721
2419,0.08716631681
2418,0.08690015227
2417,0.08728077263
2416,0.08750546724
2415,0.08713486791
2414,0.08734169602
2413,0.087454997
2412,0.0874202624
2411,0.08733353019
2410,0.08780444413
2409,0.08750808984
2408,0.0876070857
2407,0.08796683699
2406,0.08779801428
2405,0.08777251095
2404,0.08825694025
2403,0.08805515617
2402,0.08794778585
2401,0.08828482032
2400,0.08811999857
2399,0.08802811056
2398,0.08829665184
2397,0.08833795786
2396,0.08837548643
2395,0.08856126666
2394,0.08873638511
2393,0.08850121498
2392,0.08885611594
2391,0.08884042501
2390,0.08871930093
2389,0.08882362396
2388,0.08903004974
2387,0.08890604973
2386,0.08894725144
2385,0.08922059089
2384,0.08933657408
2383,0.08930773288
2382,0.08935819566
2381,0.08950819075
2380,0.0894325152
2379,0.08968305588
2378,0.08970303833
2377,0.08964916319
2376,0.08972220123
2375,0.08998972178
2374,0.09009288251
2373,0.09000048041
2372,0.09013422579
2371,0.09016637504
2370,0.09017596394
2369,0.09024009854
2368,0.09062991291
2367,0.09040604532
2366,0.09043888003
2365,0.09071491659
2364,0.09081441909
2363,0.09067937732
2362,0.0910089314
2361,0.09107868373
2360,0.09100443125
2359,0.09108915925
2358,0.0913752839
2357,0.09150708467
2356,0.09126398712
2355,0.09153591096
2354,0.09163164347
2353,0.09168340266
2352,0.09174399078
2351,0.09197538346
2350,0.09211460501
2349,0.09194547683
2348,0.09220933914
2347,0.09247843176
2346,0.09224436432
2345,0.09227118641
2344,0.09258273244
2343,0.09277319908
2342,0.09250165522
2341,0.09282137454
2340,0.0929242149
2339,0.0929042697
2338,0.0929922834
2337,0.09329289198
2336,0.09328053892
2335,0.09312182665
2334,0.09332501143
2333,0.09368834645
2332,0.09352232516
2331,0.09349750727
2330,0.0939040035
2329,0.09413186461
2328,0.09394327551
2327,0.09414279461
2326,0.09443129599
2325,0.09440156817
2324,0.09432674944
2323,0.0946931392
2322,0.0946969986
2321,0.09468058497
2320,0.0947644487
2319,0.09490440786
2318,0.0952455923
2317,0.09519595653
2316,0.09515818208
2315,0.09554901719
2314,0.09574698657
2313,0.09553708136
2312,0.09580788761
2311,0.09582560509
2310,0.09609923512
2309,0.09604927897
2308,0.09617255628
2307,0.09647922218
2306,0.0964614749
2305,0.09645555913
2304,0.09678609669
2303,0.09710432589
2302,0.09696915746
2301,0.0969099775
2300,0.09724357724
2299,0.09732204676
2298,0.09747429937
2297,0.09708926827
2296,0.0976472497
2295,0.09785626084
2294,0.09771600366
2293,0.09769074619
2292,0.09810934216
2291,0.09828750789
2290,0.09827195853
2289,0.09839642793
2288,0.09863357991
2287,0.09895657748
2286,0.09869033098
2285,0.09882116318
2284,0.09923576564
2283,0.0995471403
2282,0.09935644269
2281,0.09941056371
2280,0.0996607691
2279,0.09969352931
2278,0.1001470461
2277,0.09968939424
2276,0.1004034132
2275,0.100459002
2274,0.1003435329
2273,0.1003711224
2272,0.1006130129
2271,0.101194948
2270,0.1010704264
2269,0.1010823846
2268,0.1014118865
2267,0.101953648
2266,0.1016398296
2265,0.1019188836
2264,0.101418592
2263,0.1020646393
2262,0.1023453698
2261,0.1026030779
2260,0.1027002335
2259,0.1029558182
2258,0.1028430313
2257,0.1032456681
2256,0.1028606445
2255,0.1029414162
2254,0.1034926102
2253,0.103620328
2252,0.103824541
2251,0.1039000675
2250,0.1041356996
2249,0.1042840406
2248,0.1046915427
2247,0.1046792269
2246,0.1048008278
2245,0.1049061194
2244,0.1054413319
2243,0.1054250002
2242,0.1053745523
2241,0.1053874493
2240,0.1058635339
2239,0.1061012298
2238,0.1060610116
2237,0.1064054593
2236,0.1066333577
2235,0.1069469675
2234,0.1068092659
2233,0.1070445925
2232,0.1069727316
2231,0.1074643806
2230,0.1077723205
2229,0.1078656912
2228,0.1078751832
2227,0.1079663485
2226,0.1083879545
2225,0.1086817905
2224,0.1086651012
2223,0.1087851301
2222,0.1088901609
2221,0.10970819
2220,0.109680064
2219,0.1097316891
2218,0.1098075137
2217,0.1099468619
2216,0.1103316844
2215,0.110462226
2214,0.1107484475
2213,0.1108417585
2212,0.1111820936
2211,0.1115140319
2210,0.1116571799
2209,0.111905776
2208,0.1118541583
2207,0.1118836701
2206,0.1122219414
2205,0.1128062308
2204,0.1127561554
2203,0.1128718853
2202,0.1132088453
2201,0.1136075929
2200,0.1135470718
2199,0.1136839688
2198,0.113931872
2197,0.1141563132
2196,0.1143527403
2195,0.1144480407
2194,0.1147332937
2193,0.1150243729
2192,0.1151260659
2191,0.1152746305
2190,0.1158173084
2189,0.1159023196
2188,0.1160411686
2187,0.1161954254
2186,0.1162922829
2185,0.1166504696
2184,0.116925247
2183,0.1171907037
2182,0.1174335554
2181,0.117418699
2180,0.1175158322
2179,0.1178772971
2178,0.1181732416
2177,0.1184656098
2176,0.1185620576
2175,0.1189098656
2174,0.1189809442
2173,0.1193459481
2172,0.1194561198
2171,0.1199355721
2170,0.1201421767
2169,0.1204070821
2168,0.1203560233
2167,0.1206799075
2166,0.1209547147
2165,0.1212686449
2164,0.1216811761
2163,0.1217514053
2162,0.1219666898
2161,0.1222089455
2160,0.1224241182
2159,0.1228637472
2158,0.1230873168
2157,0.1232386008
2156,0.1235057786
2155,0.1235768571
2154,0.1238879338
2153,0.1241663992
2152,0.1245297268
2151,0.1247435659
2150,0.1248809248
2149,0.1253423244
2148,0.1255422235
2147,0.1255716085
2146,0.1260702461
2145,0.1260692775
2144,0.1264302582
2143,0.1265363097
2142,0.1269743741
2141,0.1271836609
2140,0.1274820268
2139,0.1278141886
2138,0.128233999
2137,0.1283074915
2136,0.1284220368
2135,0.1287509948
2134,0.1291564107
2133,0.1294972152
2132,0.1296119839
2131,0.1300500482
2130,0.1302741021
2129,0.1305141449
2128,0.1306603998
2127,0.1310966909
2126,0.1313159019
2125,0.1315270811
2124,0.1320911348
2123,0.1323405355
2122,0.1324573904
2121,0.1328752786
2120,0.1330261081
2119,0.1332551837
2118,0.1335956752
2117,0.1339900941
2116,0.1341908723
2115,0.1346107423
2114,0.1349243671
2113,0.1353398263
2112,0.1355257034
2111,0.135825038
2110,0.1359352618
2109,0.1363540292
2108,0.136913389
2107,0.1371620297
2106,0.1374197751
2105,0.1377588362
2104,0.1380622089
2103,0.138221547
2102,0.1384919733
2101,0.1390792727
2100,0.1391758472
2099,0.1396194994
2098,0.1400529444
2097,0.1404209733
2096,0.1407317221
2095,0.1409595013
2094,0.1412612498
2093,0.1414704025
2092,0.1419803202
2091,0.1422683746
2090,0.1425152123
2089,0.143029362
2088,0.1432616562
2087,0.1438524127
2086,0.1441072971
2085,0.1442935765
2084,0.1446636021
2083,0.1451622397
2082,0.1453883052
2081,0.1458541751
2080,0.1460268945
2079,0.1465214491
2078,0.1467967778
2077,0.1472047567
2076,0.147693634
2075,0.1479948163
2074,0.1482989192
2073,0.1485779583
2072,0.1490355134
2071,0.1494453102
2070,0.1497403681
2069,0.1502337307
2068,0.1507106125
2067,0.1510204226
2066,0.1512627453
2065,0.1518042833
2064,0.1522044986
2063,0.1524720192
2062,0.1528490037
2061,0.1532451063
2060,0.1536249369
2059,0.1540614516
2058,0.1543882191
2057,0.1547329575
2056,0.1551645696
2055,0.1555397511
2054,0.1558485776
2053,0.1564533412
2052,0.1567574739
2051,0.1572726965
2050,0.1574589461
2049,0.1578758061
2048,0.1584442556
2047,0.1586999446
2046,0.1590361148
2045,0.1596278846
2044,0.1597930491
2043,0.1602534503
2042,0.1608049273
2041,0.1611626893
2040,0.1615421176
2039,0.1618923396
2038,0.1622939408
2037,0.1626676917
2036,0.163087815
2035,0.1636044681
2034,0.1639324874
2033,0.1642849445
2032,0.164760083
2031,0.1653094739
2030,0.1656011045
2029,0.1660391837
2028,0.1662956178
2027,0.166824311
2026,0.1672617048
2025,0.16750893
2024,0.1680413932
2023,0.1683730185
2022,0.1687057614
2021,0.1692124456
2020,0.1696765572
2019,0.1701544076
2018,0.1703685373
2017,0.1709316671
2016,0.1714088023
2015,0.1717377007
2014,0.1721004397
2013,0.1724714041
2012,0.172868818
2011,0.1731857508
2010,0.1737431288
2009,0.1740362793
2008,0.174481079
2007,0.174879685
2006,0.1752860248
2005,0.1757102609
2004,0.1762298942
2003,0.1765764058
2002,0.1768990159
2001,0.177194342
2000,0.177754283
1999,0.1781586409
1998,0.1785691828
1997,0.1789842993
1996,0.1793444157
1995,0.1796849817
1994,0.1800189465
1993,0.1806126088
1992,0.1809364259
1991,0.1812474728
1990,0.1816870272
1989,0.1821185201
1988,0.1823448092
1987,0.1828131527
1986,0.1831408143
1985,0.1834726781
1984,0.1838766187
1983,0.1841895878
1982,0.1846682876
1981,0.1849792451
1980,0.1854431033
1979,0.1857691854
1978,0.1861198843
1977,0.1864597499
1976,0.186847657
1975,0.1872327179
1974,0.1875735521
1973,0.1880096197
1972,0.1883667558
1971,0.1887064278
1970,0.1890441477
1969,0.1894083768
1968,0.1897331625
1967,0.190015614
1966,0.1904537827
1965,0.190793097
1964,0.1911144555
1963,0.1915803403
1962,0.1917469949
1961,0.1921767592
1960,0.1925591528
1959,0.1928869188
1958,0.1932464689
1957,0.1936227381
1956,0.1939651072
1955,0.1941606849
1954,0.1946177781
1953,0.1949276626
1952,0.1953940392
1951,0.1956510395
1950,0.1959984154
1949,0.1964651644
1948,0.1966515481
1947,0.1969786584
1946,0.1973162591
1945,0.1979044974
1944,0.1981356442
1943,0.1984315068
1942,0.1987378299
1941,0.199101612
1940,0.1994457096
1939,0.1998972744
1938,0.2003546804
1937,0.2006986141
1936,0.2010125071
1935,0.2013254762
1934,0.2017325461
1933,0.2021553665
1932,0.2022840232
1931,0.2027714998
1930,0.2029303163
1929,0.2034215778
1928,0.2039234638
1927,0.2041448802
1926,0.2044886798
1925,0.2047301233
1924,0.2053051442
1923,0.205672428
1922,0.205609262
1921,0.2063405365
1920,0.2073483616
1919,0.207253933
1918,0.2072836906
1917,0.2077293545
1916,0.2081194371
1915,0.2082906812
1914,0.208854124
1913,0.2091541141
1912,0.2095838487
1911,0.2100239545
1910,0.2104700506
1909,0.2105488181
1908,0.210807085
1907,0.2110791206
1906,0.2121364027
1905,0.2122962475
1904,0.2125459611
1903,0.21300143
1902,0.2131331265
1901,0.2130842954
1900,0.2140452713
1899,0.2143955976
1898,0.2147082686
1897,0.2151410282
1896,0.2153305858
1895,0.2155123055
1894,0.215960294
1893,0.2163791507
1892,0.2165295631
1891,0.2169349194
1890,0.2176913023
1889,0.2179914266
1888,0.2180300951
1887,0.2184527814
1886,0.2187147886
1885,0.2189716101
1884,0.2195374966
1883,0.2197623849
1882,0.2199197263
1881,0.2202297002
1880,0.220685631
1879,0.2207362801
1878,0.2209499031
1877,0.2213261873
1876,0.2217350602
1875,0.2218482941
1874,0.2220639437
1873,0.2226668894
1872,0.2228457481
1871,0.2231088281
1870,0.2235972136
1869,0.2235399187
1868,0.2241192013
1867,0.2245209515
1866,0.2242948413
1865,0.2244384736
1864,0.2249377519
1863,0.2251013666
1862,0.2250199169
1861,0.2251994014
1860,0.225867033
1859,0.2261001021
1858,0.2258810997
1857,0.2262083441
1856,0.2264376283
1855,0.2262532264
1854,0.2268021554
1853,0.2271906137
1852,0.2271036208
1851,0.2270123214
1850,0.2270186543
1849,0.2270496935
1848,0.2275856882
1847,0.2280964702
1846,0.2278756648
1845,0.227745235
1844,0.2277320325
1843,0.2275594622
1842,0.2279886305
1841,0.2281821817
1840,0.2283359468
1839,0.2281911969
1838,0.2281264961
1837,0.2283380479
1836,0.2284137309
1835,0.2285043597
1834,0.2283757627
1833,0.228269428
1832,0.2282410562
1831,0.2283392251
1830,0.2283415496
1829,0.2283532023
1828,0.2282295823
1827,0.2279776037
1826,0.2282402664
1825,0.2281374335
1824,0.2278076857
1823,0.2278395742
1822,0.2275933325
1821,0.2278003395
1820,0.2277012914
1819,0.2274254113
1818,0.2272506356
1817,0.2271869034
1816,0.2270541936
1815,0.2270356864
1814,0.2266932875
1813,0.2266271114
1812,0.2266173363
1811,0.2263346463
1810,0.2260934412
1809,0.2259590477
1808,0.2256911546
1807,0.2256404459
1806,0.2253160328
1805,0.2251157165
1804,0.2248925567
1803,0.2246842384
1802,0.2244937718
1801,0.224301964
1800,0.2241026759
1799,0.223832503
1798,0.2235973924
1797,0.2233608961
1796,0.2231600285
1795,0.222772941
1794,0.222619012
1793,0.2222559303
1792,0.2220058888
1791,0.2218537778
1790,0.2214246243
1789,0.2212583274
1788,0.2210360765
1787,0.2206590921
1786,0.2203766853
1785,0.2201471776
1784,0.2198005915
1783,0.2194548547
1782,0.2192534506
1781,0.2189140171
1780,0.2185685486
1779,0.2182436287
1778,0.2179460227
1777,0.217663914
1776,0.2173842937
1775,0.2169986516
1774,0.2166426331
1773,0.2163247913
1772,0.2160605043
1771,0.2157437056
1770,0.2153205127
1769,0.2149996608
1768,0.2146996111
1767,0.2144992203
1766,0.2140625566
1765,0.2137322277
1764,0.2134705335
1763,0.2130291611
1762,0.2128438652
1761,0.2124156654
1760,0.2121035904
1759,0.2117954046
1758,0.2113940865
1757,0.2111533731
1756,0.2108549476
1755,0.2105181813
1754,0.2101188004
1753,0.2098857164
1752,0.209446758
1751,0.2091717124
1750,0.2088409364
1749,0.2084717453
1748,0.2081295997
1747,0.2078065425
1746,0.2075193822
1745,0.2071429044
1744,0.2068345845
1743,0.2063794136
1742,0.2061552852
1741,0.2057851255
1740,0.2053934485
1739,0.2051475197
1738,0.204740122
1737,0.2044537663
1736,0.2040633261
1735,0.2037446946
1734,0.2033027112
1733,0.2028480023
1732,0.2027376443
1731,0.2023123503
1730,0.2019726634
1729,0.2016040832
1728,0.2011613548
1727,0.2008475512
1726,0.200598076
1725,0.2000820935
1724,0.1997479051
1723,0.1994345933
1722,0.1990848631
1721,0.1987468749
1720,0.1983050108
1719,0.19780913
1718,0.1974638402
1717,0.1970559955
1716,0.1967276484
1715,0.196336031
1714,0.1960222721
1713,0.1956228018
1712,0.1952205747
1711,0.1947172284
1710,0.1944613457
1709,0.1939886957
1708,0.1936457008
1707,0.1932506412
1706,0.1928245276
1705,0.1924378574
1704,0.1920061857
1703,0.1915607005
1702,0.1911714971
1701,0.1907601506
1700,0.1903742105
1699,0.1899830997
1698,0.1895253807
1697,0.1890476197
1696,0.1887871921
1695,0.1882779747
1694,0.1878550798
1693,0.1874561459
1692,0.1870618463
1691,0.1866562963
1690,0.1862712204
1689,0.1858112067
1688,0.1853094697
1687,0.1849580109
1686,0.1845601499
1685,0.1841187477
1684,0.183665067
1683,0.1832633018
1682,0.182845369
1681,0.182465598
1680,0.181959331
1679,0.1815825701
1678,0.1811570674
1677,0.1807331592
1676,0.1803912222
1675,0.1799606085
1674,0.1795006841
1673,0.1791500598
1672,0.1787113547
1671,0.1783353239
1670,0.1779636145
1669,0.1776014417
1668,0.1770796329
1667,0.1767571718
1666,0.1763391644
1665,0.1759129018
1664,0.1755562872
1663,0.1750869751
1662,0.1747074872
1661,0.1742547154
1660,0.1738777012
1659,0.1734212786
1658,0.1730764508
1657,0.1726774573
1656,0.1722404212
1655,0.1718317717
1654,0.1714422256
1653,0.1710470617
1652,0.1705995053
1651,0.1702779531
1650,0.1698527783
1649,0.1694764644
1648,0.1689852923
1647,0.1686887741
1646,0.1682827324
1645,0.1679331213
1644,0.1675080955
1643,0.1670600623
1642,0.1666521579
1641,0.1663103849
1640,0.1659109592
1639,0.1654890031
1638,0.1651582569
1637,0.164667666
1636,0.1643328518
1635,0.164029792
1634,0.1635791063
1633,0.1631969959
1632,0.1627956778
1631,0.1623672247
1630,0.1620422304
1629,0.1616663039
1628,0.1613327116
1627,0.1609366387
1626,0.1606073827
1625,0.1602950394
1624,0.1599051058
1623,0.1594419032
1622,0.1591105759
1621,0.1587745994
1620,0.1584527642
1619,0.1580893695
1618,0.1576720774
1617,0.1573096663
1616,0.1570049226
1615,0.1566518694
1614,0.1562798023
1613,0.1559120715
1612,0.1556334198
1611,0.1553683877
1610,0.1550215036
1609,0.1547136009
1608,0.154388696
1607,0.1540465057
1606,0.1537222862
1605,0.1533920765
1604,0.1531236917
1603,0.1528452486
1602,0.1524773091
1601,0.1522232443
1600,0.1519396007
1599,0.1517117321
1598,0.1514241397
1597,0.1510995924
1596,0.1508814991
1595,0.1505678743
1594,0.15027982
1593,0.1500977576
1592,0.1497970819
1591,0.1495393217
1590,0.1493469775
1589,0.1491294354
1588,0.1488365382
1587,0.1485521942
1586,0.148343429
1585,0.1481207311
1584,0.1478689015
1583,0.1475941688
1582,0.1474627405
1581,0.1472651809
1580,0.1470719874
1579,0.1468250155
1578,0.1466006339
1577,0.1463763863
1576,0.1461619437
1575,0.1460117847
1574,0.1458154619
1573,0.1455879807
1572,0.1454333067
1571,0.1452077031
1570,0.1450448781
1569,0.1449072808
1568,0.1446902454
1567,0.1444739103
1566,0.1443170309
1565,0.1441404074
1564,0.1439921707
1563,0.1438557357
1562,0.1436423957
1561,0.1435143203
1560,0.1433465183
1559,0.1432022601
1558,0.1430605948
1557,0.1428755224
1556,0.1427106261
1555,0.1425492465
1554,0.142419517
1553,0.1423040181
1552,0.1421263069
1551,0.1420210302
1550,0.1418941915
1549,0.1417213082
1548,0.1416290402
1547,0.1414960772
1546,0.1413008422
1545,0.1412563026
1544,0.1410861164
1543,0.1409642696
1542,0.1408652961
1541,0.1407014132
1540,0.1406093985
1539,0.1405196637
1538,0.1403858215
1537,0.14026317
1536,0.1401743889
1535,0.140078932
1534,0.139976725
1533,0.1399286389
1532,0.1398134977
1531,0.139588505
1530,0.1395934373
1529,0.1394650787
1528,0.1394025236
1527,0.1392775774
1526,0.1391688883
1525,0.1390743852
1524,0.1390161961
1523,0.1389487982
1522,0.1388670206
1521,0.1387345344
1520,0.1386468709
1519,0.1386107057
1518,0.1385718882
1517,0.1384403408
1516,0.1383661479
1515,0.1382568032
1514,0.1382179111
1513,0.1381343901
1512,0.1380348206
1511,0.1379723251
1510,0.1379295141
1509,0.1378673911
1508,0.1378467977
1507,0.137706548
1506,0.1376379877
1505,0.1376174837
1504,0.1375284344
1503,0.1375372112
1502,0.1374266893
1501,0.1373355538
1500,0.1372457892
1499,0.1372644305
1498,0.1371960491
1497,0.1371572465
1496,0.1370645314
1495,0.1369870603
1494,0.1370150149
1493,0.1369494796
1492,0.136880219
1491,0.1368026435
1490,0.1367500722
1489,0.1366910934
1488,0.1367179155
1487,0.1366746873
1486,0.1366334856
1485,0.1364915669
1484,0.1364931613
1483,0.1364220381
1482,0.1364548504
1481,0.1363862008
1480,0.1363352537
1479,0.1362842619
1478,0.1362195462
1477,0.1362294257
1476,0.136172682
1475,0.1361580938
1474,0.1360837519
1473,0.1360602826
1472,0.1360333711
1471,0.1360077709
1470,0.1359304041
1469,0.1359390765
1468,0.1359132081
1467,0.1358909458
1466,0.1358134001
1465,0.1358204335
1464,0.1357627511
1463,0.1357446015
1462,0.1357299536
1461,0.1356354207
1460,0.1356285959
1459,0.1356114
1458,0.1355794966
1457,0.1356003284
1456,0.1355085522
1455,0.1354926378
1454,0.1354984641
1453,0.1353865564
1452,0.1353740394
1451,0.1354135722
1450,0.1353874058
1449,0.1353312731
1448,0.1353165209
1447,0.1352669299
1446,0.1352625489
1445,0.1352476329
1444,0.1351927072
1443,0.1351462454
1442,0.1351472288
1441,0.1351344138
1440,0.1351135224
1439,0.1350479126
1438,0.13503474
1437,0.1350242496
1436,0.1350044012
1435,0.1349377036
1434,0.1349450499
1433,0.1348941624
1432,0.1348594129
1431,0.1348909885
1430,0.1348132342
1429,0.1348216981
1428,0.1348175406
1427,0.1347660571
1426,0.134738341
1425,0.134660691
1424,0.1346791834
1423,0.1347182989
1422,0.1346372515
1421,0.1346138865
1420,0.1345866174
1419,0.1345645934
1418,0.1346024275
1417,0.1345721036
1416,0.1344657242
1415,0.1344714463
1414,0.1343938261
1413,0.1344632506
1412,0.1343925595
1411,0.1342863292
1410,0.1343510151
1409,0.1343828589
1408,0.1343579888
1407,0.1343267411
1406,0.1343168616
1405,0.1343088299
1404,0.1343483329
1403,0.134167105
1402,0.1341627687
1401,0.1342703551
1400,0.1342323422
1399,0.1341813505
1398,0.1341174394
1397,0.1340606511
1396,0.1341343224
1395,0.134186998
1394,0.1340330839
1393,0.1340205371
1392,0.1341380179
1391,0.1340330541
1390,0.1339483261
1389,0.133998096
1388,0.1340672821
1387,0.1340281218
1386,0.1339724362
1385,0.1339010149
1384,0.1339387447
1383,0.1340369284
1382,0.1339410692
1381,0.1339545697
1380,0.1338974088
1379,0.1337779164
1378,0.1337985247
1377,0.133782357
1376,0.1336761713
1375,0.1335989386
1374,0.1335740834
1373,0.133479923
1372,0.1335597187
1371,0.1335856766
1370,0.1336064488
1369,0.1335328221
1368,0.1335322559
1367,0.1335150152
1366,0.1333925277
1365,0.1334730834
1364,0.133440882
1363,0.1333472729
1362,0.1334997714
1361,0.1335013211
1360,0.1334086359
1359,0.1333603561
1358,0.1333367079
1357,0.1332795322
1356,0.1332233548
1355,0.1332718581
1354,0.1332736164
1353,0.1332793981
1352,0.13324368
1351,0.1332422048
1350,0.1332468837
1349,0.1331745237
1348,0.1331807524
1347,0.1332215518
1346,0.1331986189
1345,0.1332006603
1344,0.1331632286
1343,0.1331032664
1342,0.1332101524
1341,0.1331889033
1340,0.1332022399
1339,0.1331923157
1338,0.1332044899
1337,0.1332152933
1336,0.1332336217
1335,0.1332135051
1334,0.1331888437
1333,0.1332039684
1332,0.1331876814
1331,0.1332447082
1330,0.13328439
1329,0.1333027929
1328,0.1332694292
1327,0.1332845986
1326,0.1333123296
1325,0.1333276033
1324,0.1333269924
1323,0.1332918555
1322,0.1333125383
1321,0.133364439
1320,0.1334186345
1319,0.1333986521
1318,0.1334296614
1317,0.1334048808
1316,0.1334784031
1315,0.1334782988
1314,0.1334955394
1313,0.1335634142
1312,0.133542791
1311,0.1336274296
1310,0.1336138397
1309,0.1337204427
1308,0.1336660981
1307,0.1336942613
1306,0.1337783039
1305,0.1338389367
1304,0.1338668019
1303,0.1338990778
1302,0.1338858306
1301,0.1339655221
1300,0.1339955181
1299,0.1340492964
1298,0.1341113001
1297,0.1341378093
1296,0.1341894269
1295,0.1342838258
1294,0.1343244165
1293,0.1343421191
1292,0.1344206333
1291,0.1344279796
1290,0.134571299
1289,0.1346454471
1288,0.1345892251
1287,0.1346909404
1286,0.1347423792
1285,0.1348497123
1284,0.1349604577
1283,0.1349929869
1282,0.1350239664
1281,0.1351616532
1280,0.1352175176
1279,0.1353183687
1278,0.1354060769
1277,0.1354753375
1276,0.1355080158
1275,0.1355948895
1274,0.1357192397
1273,0.1358038783
1272,0.1359400004
1271,0.1360064149
1270,0.1360946298
1269,0.1362268031
1268,0.1363371611
1267,0.1364356428
1266,0.1365469396
1265,0.1366079897
1264,0.1367635578
1263,0.1369170845
1262,0.136954695
1261,0.1370816678
1260,0.137233153
1259,0.1373518258
1258,0.1374948323
1257,0.1375726014
1256,0.1377188861
1255,0.137901172
1254,0.1379964352
1253,0.1380861253
1252,0.1382680535
1251,0.1384079158
1250,0.1385509074
1249,0.1386992037
1248,0.1388410032
1247,0.1389337778
1246,0.1391477436
1245,0.1392761171
1244,0.1394454092
1243,0.1396010667
1242,0.1397461444
1241,0.1398744732
1240,0.1400368959
1239,0.1402463913
1238,0.1404107511
1237,0.1405463219
1236,0.1407518834
1235,0.1408715844
1234,0.1410770863
1233,0.1412861943
1232,0.1414428651
1231,0.1416042
1230,0.1417729408
1229,0.1419866085
1228,0.1422223002
1227,0.1424389184
1226,0.1426217556
1225,0.142747134
1224,0.1429915428
1223,0.1432058811
1222,0.1434472799
1221,0.1435951889
1220,0.1438869089
1219,0.1440249532
1218,0.1443082988
1217,0.1444905549
1216,0.1447521299
1215,0.1449656188
1214,0.1452083439
1213,0.1454498023
1212,0.1456669271
1211,0.1459582299
1210,0.1461863369
1209,0.1464737207
1208,0.1467082947
1207,0.1469368339
1206,0.1471979618
1205,0.1475080401
1204,0.1477571428
1203,0.1480022073
1202,0.1483082771
1201,0.1486348212
1200,0.1488602757
1199,0.1489651799
1198,0.1492628008
1197,0.149480924
1196,0.1497964263
1195,0.1501025856
1194,0.1504479498
1193,0.1507654488
1192,0.1510368437
1191,0.151283294
1190,0.1515766978
1189,0.1519383937
1188,0.1522876471
1187,0.1525832713
1186,0.152865231
1185,0.1531852484
1184,0.1535076648
1183,0.1538450718
1182,0.1541601866
1181,0.1544716656
1180,0.1547730714
1179,0.1551190615
1178,0.1554191411
1177,0.1557689756
1176,0.1560917944
1175,0.1564246565
1174,0.1567415446
1173,0.1570697278
1172,0.1573852748
1171,0.1576732993
1170,0.1580627263
1169,0.1583646685
1168,0.1586949527
1167,0.1590052396
1166,0.1593508422
1165,0.1596232206
1164,0.1600435823
1163,0.1603246629
1162,0.1606342793
1161,0.1609544903
1160,0.1612999886
1159,0.1616708934
1158,0.1620009094
1157,0.1623553038
1156,0.16264759
1155,0.1629664898
1154,0.1633554101
1153,0.1637090594
1152,0.1641075611
1151,0.1644439101
1150,0.1648091376
1149,0.1651735604
1148,0.1655605882
1147,0.1659985781
1146,0.1663494855
1145,0.1666941047
1144,0.1671464741
1143,0.1676012278
1142,0.1680529416
1141,0.1685022712
1140,0.1688569635
1139,0.1693638116
1138,0.1698716432
1137,0.1702647656
1136,0.1707027406
1135,0.1712771058
1134,0.1717671156
1133,0.1722455025
1132,0.1728203744
1131,0.1733270139
1130,0.173842594
1129,0.1743555665
1128,0.1749083847
1127,0.1754399091
1126,0.1760387123
1125,0.1765951961
1124,0.1770882308
1123,0.1776829958
1122,0.1782670319
1121,0.1787987053
1120,0.179416284
1119,0.1800080985
1118,0.1805243343
1117,0.1811058074
1116,0.1816886365
1115,0.182212308
1114,0.1828111857
1113,0.1833973676
1112,0.183926791
1111,0.1844551563
1110,0.1850172579
1109,0.185514167
1108,0.1860927045
1107,0.1866259277
1106,0.187150985
1105,0.1876299679
1104,0.1881024241
1103,0.1885589957
1102,0.189057976
1101,0.1895188093
1100,0.1898775101
1099,0.1903267801
1098,0.1907361746
1097,0.1911382973
1096,0.1914951503
1095,0.1918378919
1094,0.1921081394
1093,0.1924487501
1092,0.1927707791
1091,0.1930577904
1090,0.1933120787
1089,0.1935719997
1088,0.1938219368
1087,0.1940390766
1086,0.1942648143
1085,0.1944794953
1084,0.1946389675
1083,0.1948272437
1082,0.1950447112
1081,0.1952010989
1080,0.1953684688
1079,0.1955146641
1078,0.1957396269
1077,0.1958355606
1076,0.1960567087
1075,0.1961878389
1074,0.1963548213
1073,0.196564883
1072,0.1967760921
1071,0.1969596744
1070,0.1971711665
1069,0.1973736733
1068,0.197586149
1067,0.1978084296
1066,0.1981020272
1065,0.1983332038
1064,0.1985454857
1063,0.1988908947
1062,0.199196279
1061,0.1994726211
1060,0.1997842342
1059,0.2000676095
1058,0.2003920525
1057,0.2007408142
1056,0.2011249065
1055,0.2014533579
1054,0.2017707676
1053,0.2021756917
1052,0.2025552392
1051,0.2029649317
1050,0.2033845782
1049,0.2037103921
1048,0.2040747106
1047,0.2045171559
1046,0.2048311234
1045,0.2052453011
1044,0.2055913806
1043,0.2059469372
1042,0.2062765211
1041,0.2066632062
1040,0.20696114
1039,0.2072349191
1038,0.2075625062
1037,0.2078337818
1036,0.2081315219
1035,0.2083489895
1034,0.2085740566
1033,0.2088169903
1032,0.2089839876
1031,0.2091495395
1030,0.2092429101
1029,0.2093594223
1028,0.2094501555
1027,0.2095663548
1026,0.209674105
1025,0.2097062469
1024,0.2096591741
1023,0.2096719295
1022,0.2096589208
1021,0.2095869035
1020,0.2095578462
1019,0.2094848305
1018,0.2093264014
1017,0.2092271447
1016,0.2091453522
1015,0.2090381384
1014,0.2088611126
1013,0.2086461484
1012,0.2085193694
1011,0.208382234
1010,0.2081801444
1009,0.207930252
1008,0.2076539844
1007,0.2075210512
1006,0.2072830945
1005,0.2070518285
1004,0.2068431377
1003,0.206583187
1002,0.2062737197
1001,0.2060123235
1000,0.2057098001
999,0.2055007517
998,0.2051294297
997,0.2048540264
996,0.2045518905
995,0.204223454
994,0.2038914561
993,0.2035140991
992,0.2031325102
991,0.2027902007
990,0.2024579346
989,0.202060461
988,0.2017291635
987,0.2013481557
986,0.2010122687
985,0.2006091177
984,0.2003207207
983,0.1998418123
982,0.1994723827
981,0.1990886331
980,0.1987278908
979,0.1984012127
978,0.1980407536
977,0.1976673007
976,0.1973852515
975,0.1970764548
974,0.196678251
973,0.1963901371
972,0.1960398853
971,0.195730567
970,0.1954682469
969,0.1951400787
968,0.1947362721
967,0.1945358515
966,0.1943153441
965,0.1938815564
964,0.1936776489
963,0.1934292167
962,0.1930684596
961,0.1927824467
960,0.1925815046
959,0.1922939122
958,0.1920056641
957,0.1916283369
956,0.1914105266
955,0.1910886168
954,0.1907951385
953,0.1904622167
952,0.1901527643
951,0.1898005307
950,0.1895319819
949,0.1890702993
948,0.1887831837
947,0.188347742
946,0.1881018579
945,0.1877739727
944,0.187332809
943,0.1868653297
942,0.1864972562
941,0.1861551255
940,0.1858751327
939,0.1854413152
938,0.1850551069
937,0.1846151799
936,0.1843242645
935,0.1837943643
934,0.1835825741
933,0.1832015663
932,0.182766825
931,0.1824689806
930,0.1819966435
929,0.1816920191
928,0.1812930554
927,0.1808291972
926,0.1803452969
925,0.1799680144
924,0.1795397848
923,0.1791731417
922,0.1787378341
921,0.178413555
920,0.1780607998
919,0.1776006669
918,0.1772541404
917,0.1766763628
916,0.1762825996
915,0.176029399
914,0.1755727232
913,0.1751863062
912,0.174788624
911,0.1742505431
910,0.1741160452
909,0.1736994982
908,0.1732700765
907,0.1731681228
906,0.1725572348
905,0.1721600741
904,0.1719084978
903,0.1714045703
902,0.1710346639
901,0.1708737016
900,0.1704154015
899,0.1674452871
898,0.1745576859
897,0.1665844172
896,0.1696774364
895,0.1720144153
894,0.1673931032
893,0.1648376733
892,0.1658793241
891,0.1646522731
890,0.1663563997
889,0.1702949554
888,0.1686986983
887,0.1685428619
886,0.173208043
885,0.1650806814
884,0.1686744988
883,0.1730429083
882,0.1674534678
881,0.1656787395
880,0.1684498489
879,0.1636943072
878,0.1653907299
877,0.1654836684
876,0.1659604907
875,0.1624959856
874,0.1677829623
873,0.1647270173
872,0.1669569463
871,0.1663452834
870,0.1632487625
869,0.1617681831
868,0.164850682
867,0.1626940072
866,0.1626903564
865,0.1638818979
864,0.1642827094
863,0.1634461135
862,0.1637363881
861,0.1645056009
860,0.1644837111
859,0.1641906649
858,0.1638818234
857,0.1639383733
856,0.1622608453
855,0.1617686003
854,0.1629321724
853,0.162790373
852,0.1623023003
851,0.162871033
850,0.1641686857
849,0.1630304605
848,0.1637974828
847,0.1634676009
846,0.1620074213
845,0.1629826874
844,0.1629273891
843,0.1639778018
842,0.1626219898
841,0.1631608903
840,0.1624679118
839,0.162412256
838,0.1629087478
837,0.1626360416
836,0.1630028188
835,0.1621782184
834,0.1625837535
833,0.1633976549
832,0.1631772071
831,0.1624388695
830,0.1628684849
829,0.1632000953
828,0.1636511385
827,0.1629893631
826,0.1633890867
825,0.1632938087
824,0.1631110758
823,0.1639884859
822,0.1639719754
821,0.1636475474
820,0.164110586
819,0.1639467925
818,0.1643522829
817,0.1644989848
816,0.1648600698
815,0.1649331003
814,0.1648218185
813,0.1645186394
812,0.1656405628
811,0.1656664908
810,0.1656276733
809,0.1661180258
808,0.1666297466
807,0.1663636565
806,0.1669992656
805,0.1670864224
804,0.1674722433
803,0.167431131
802,0.1678736359
801,0.1680050641
800,0.1678591669
799,0.1688035727
798,0.1685717553
797,0.1690392345
796,0.1692422479
795,0.1696385592
794,0.1694040298
793,0.169749558
792,0.1702169925
791,0.1704123765
790,0.1705567241
789,0.1708896905
788,0.1709552258
787,0.1716534495
786,0.1710977405
785,0.1716613173
784,0.1719027609
783,0.1719723791
782,0.1724283844
781,0.1728856564
780,0.1731062979
779,0.1731090844
778,0.1738138199
777,0.1738249063
776,0.1741055697
775,0.1743720919
774,0.1750511378
773,0.1753320992
772,0.1758537143
771,0.1760244668
770,0.1763736308
769,0.1768506616
768,0.1771323383
767,0.1779182553
766,0.1779955924
765,0.1783931404
764,0.1794098616
763,0.1797992736
762,0.1800870895
761,0.1806927323
760,0.1819058061
759,0.1819300056
758,0.1823351532
757,0.1828355938
756,0.183208704
755,0.1842592657
754,0.1844648123
753,0.1849502325
752,0.1852499396
751,0.1860332638
750,0.1863643974
749,0.1865945011
748,0.1871182024
747,0.1874634027
746,0.1877104342
745,0.1879708618
744,0.1884420514
743,0.1884670556
742,0.1890382171
741,0.1888713539
740,0.18950288
739,0.1893408298
738,0.1895260215
737,0.1898164749
736,0.1896697432
735,0.1897563189
734,0.189757809
733,0.1896213442
732,0.1900615245
731,0.1900708228
730,0.1898997575
729,0.1902528703
728,0.1900276393
727,0.1900901496
726,0.1902133226
725,0.1904530972
724,0.190784663
723,0.1905880868
722,0.1910550594
721,0.1910603642
720,0.1911196858
719,0.1912741065
718,0.1915189773
717,0.1915259808
716,0.1914847791
715,0.1920367628
714,0.1921367943
713,0.1924407333
712,0.192343846
711,0.1929877847
710,0.1930195242
709,0.1931206286
708,0.1933896989
707,0.1934347451
706,0.1936438084
705,0.1936790943
704,0.1936335713
703,0.1936341822
702,0.1937460601
701,0.1938247681
700,0.1939430535
699,0.1937197447
698,0.1937948018
697,0.1936174035
696,0.1935781091
695,0.1935848594
694,0.1933883578
693,0.193241626
692,0.193229273
691,0.1930491924
690,0.1928119808
689,0.1925783902
688,0.1923751682
687,0.1921723336
686,0.1920199245
685,0.1920174211
684,0.191716522
683,0.1917721927
682,0.1912738681
681,0.1912532747
680,0.1911702603
679,0.1910272092
678,0.1907456666
677,0.1906880289
676,0.19042404
675,0.190174371
674,0.1901071519
673,0.1899273694
672,0.1896179467
671,0.1894877702
670,0.1892662644
669,0.189091906
668,0.1890073717
667,0.1886222512
666,0.1884631813
665,0.1882048547
664,0.1882489026
663,0.1881139576
662,0.1878903061
661,0.1877677888
660,0.1877625287
659,0.1873800606
658,0.1874840558
657,0.1873133183
656,0.1871572286
655,0.1871493012
654,0.1869419664
653,0.1868408918
652,0.1866396666
651,0.1865333766
650,0.1865957379
649,0.1863323599
648,0.1861287802
647,0.186111927
646,0.1860093921
645,0.1859355867
644,0.1856243014
643,0.1858214885
642,0.1855891794
641,0.1852166653
640,0.1850153953
639,0.1850600243
638,0.1849499941
637,0.1848866343
636,0.1846236587
635,0.1844329834
634,0.1844103038
633,0.1842235774
632,0.1840275079
631,0.1839331239
630,0.1838816106
629,0.1838450432
628,0.1836648732
627,0.1835365146
626,0.18352063
625,0.1834813356
624,0.18346861
623,0.1833327413
622,0.1831932664
621,0.1832767576
620,0.183101356
619,0.1828599572
618,0.1828520745
617,0.1829932034
616,0.1829481572
615,0.1831362396
614,0.1830894798
613,0.1829940826
612,0.1830791831
611,0.1832526773
610,0.1833398491
609,0.1834311783
608,0.1835102439
607,0.1834522635
606,0.1837411672
605,0.1840340346
604,0.1843279451
603,0.1843787581
602,0.1845931262
601,0.1849912107
600,0.1851551235
599,0.1854817122
598,0.1857783645
597,0.1860021949
596,0.1861161888
595,0.1864094883
594,0.1867234856
593,0.1869443506
592,0.1871236563
591,0.1873588711
590,0.1875364333
589,0.1876824051
588,0.1879177988
587,0.1879483163
586,0.1881028563
585,0.188281998
584,0.1883145571
583,0.1884353459
582,0.1884878725
581,0.188605234
580,0.1884170771
579,0.1885988414
578,0.1888971031
577,0.1888529956
576,0.1890111715
575,0.1893045604
574,0.1896342039
573,0.1898863316
572,0.1899549216
571,0.1904512495
570,0.1910468191
569,0.1913121045
568,0.1917271465
567,0.1922186613
566,0.1929371655
565,0.1933262944
564,0.1938055158
563,0.19427149
562,0.1947046518
561,0.1951218992
560,0.1958169937
559,0.1962521076
558,0.1966665238
557,0.1969845742
556,0.1970000863
555,0.1972948164
554,0.1975434273
553,0.1974460632
552,0.197375223
551,0.1972768754
550,0.197147727
549,0.1971036345
548,0.196969822
547,0.1966659129
546,0.1962692738
545,0.1963207722
544,0.1963219047
543,0.1961941421
542,0.1961980164
541,0.1962188333
540,0.1959456205
539,0.1962391734
538,0.1964787245
537,0.1966226399
536,0.1969738901
535,0.1973079443
534,0.1977358162
533,0.1981048882
532,0.1984239072
531,0.1991375238
530,0.1994023919
529,0.1997232735
528,0.2001348138
527,0.200672403
526,0.2010769099
525,0.2013019472
524,0.2019020319
523,0.2016552389
522,0.2021066695
521,0.2020012736
520,0.2022793144
519,0.2024852037
518,0.202456072
517,0.2022152245
516,0.202634111
515,0.2024248391
514,0.2023446113
513,0.2024720907
512,0.2027248442
511,0.2027553022
510,0.202999264
509,0.2033118159
508,0.2034692168
507,0.2036502659
506,0.2039882988
505,0.2043922693
504,0.2047811747
503,0.2053161114
502,0.2058026344
501,0.2062637359
500,0.2069228292
499,0.2077293545
498,0.208212167
497,0.2086298317
496,0.2091817707
495,0.2098121494
494,0.2101507187
493,0.2105964869
492,0.2105648816
491,0.210518688
490,0.2104840875
489,0.2102942467
488,0.21006459
487,0.2099447846
486,0.2091411203
485,0.2087799311
484,0.2087400854
483,0.2084267437
482,0.2081623673
481,0.2080458403
480,0.2079400271
479,0.2080166638
478,0.2080409825
477,0.2084113061
476,0.2085841298
475,0.2092626095
474,0.2096280903
473,0.2102539688
472,0.2110393941
471,0.2115750164
470,0.2118716687
469,0.2124549747
468,0.2130675912
467,0.2131872624
466,0.2135967016
465,0.2133334428
464,0.2133698761
463,0.2131076753
462,0.2129879892
461,0.212678194
460,0.2121750116
459,0.2118853331
458,0.2116393596
457,0.2111951709
456,0.2112372816
455,0.2112348825
454,0.2109842747
453,0.2112662047
452,0.211563006
451,0.2118939757
450,0.2120832056
449,0.2124776393
448,0.2130840868
447,0.213265121
446,0.2137874067
445,0.2142255753
444,0.2146296799
443,0.2152935565
442,0.2155884653
441,0.2156567723
440,0.2162456065
439,0.2165486515
438,0.2167435586
437,0.2169321924
436,0.2172020823
435,0.2173997611
434,0.2174876034
433,0.2178532928
432,0.2178885937
431,0.2182550579
430,0.2189492434
429,0.2190206051
428,0.2197625935
427,0.2202133685
426,0.220295459
425,0.2207586616
424,0.2215053588
423,0.2220847458
422,0.2228032053
421,0.2230033576
420,0.2231187373
419,0.223523885
418,0.2235142738
417,0.2236799151
416,0.2236375511
415,0.2235906869
414,0.2237904221
413,0.2241980135
412,0.2245136946
411,0.2246895432
410,0.2249735594
409,0.2257784754
408,0.2262749821
407,0.2267082036
406,0.2274825722
405,0.22795026
404,0.2289057076
403,0.2295432836
402,0.2300046682
401,0.2306378186
400,0.2311216146
399,0.2320896387
398,0.2321521491
397,0.2330024093
396,0.2326775342
395,0.2331274003
394,0.2333242595
393,0.233755976
392,0.2340857536
391,0.2344664484
390,0.2348752916
389,0.2352348417
388,0.2353883237
387,0.2364437729
386,0.2366850823
385,0.2369816154
384,0.2379482538
383,0.2385284901
382,0.2395944744
381,0.2402785122
380,0.240749687
379,0.2415418923
378,0.2423932552
377,0.243545413
376,0.2446389943
375,0.2448613048
374,0.2452456355
373,0.2472601086
372,0.2475974113
371,0.2482130527
370,0.2489300519
369,0.2497035116
368,0.2501271069
367,0.2508383095
366,0.2509152591
365,0.2518310249
364,0.251852572
363,0.2526769936
362,0.253008306
361,0.254016757
360,0.2549055517
359,0.2559955716
358,0.2569699287
357,0.2577252388
356,0.2590844035
355,0.2604185939
354,0.2616342902
353,0.2621053457
352,0.2636081278
351,0.2646518648
350,0.2652126253
349,0.2647913992
348,0.2650788426
347,0.2655384541
346,0.2651327848
345,0.2671548426
344,0.2679416835
343,0.2687565982
342,0.2701401114
341,0.2710771859
340,0.2724802792
339,0.2734590471
338,0.2746272385
337,0.276091069
336,0.2771380544
335,0.2789851427
334,0.2791560292
333,0.2808580697
332,0.2817329168
331,0.2830304205
330,0.2836165726
329,0.2853770554
328,0.2863211334
327,0.2872157991
326,0.2887037098
325,0.290274322
324,0.2908858657
323,0.2932164073
322,0.2952257097
321,0.2976102531
320,0.2990435958
319,0.3005396426
318,0.3018833995
317,0.3035035133
316,0.305201292
315,0.3067488968
314,0.3095858693
313,0.3116372228
312,0.3132377267
311,0.315004468
310,0.3171752095
309,0.3189754486
308,0.3209939003
307,0.3235155344
306,0.3256061077
305,0.3286763132
304,0.3315063715
303,0.3330881894
302,0.3356980085
301,0.3377127945
300,0.340688318
299,0.3426060677
298,0.3450268209
297,0.3476697206
296,0.3497470021
295,0.3525686264
294,0.3555754423
293,0.3580271602
292,0.3610413074
291,0.3632019758
290,0.3663302958
289,0.3686017394
288,0.3716883957
287,0.374380827
286,0.3763724864
285,0.3792665899
284,0.381616503
283,0.3832987845
282,0.3861869872
281,0.388417542
280,0.3906592429
279,0.3915404379
278,0.3935133815
277,0.39570117
276,0.3968147039
275,0.3977669179
274,0.3988735974
273,0.399479419
272,0.3998278081
271,0.4008831978
270,0.4005134702
269,0.4004912674
268,0.3999117613
267,0.3997701406
266,0.3988771141
265,0.3986405432
264,0.3985689878
263,0.3966057301
262,0.395863235
261,0.3943852186
260,0.3931397498
259,0.3914708495
258,0.3902697563
257,0.388716042
256,0.3870780766
255,0.3854002357
254,0.383413434
253,0.3804204464
252,0.3786608279
251,0.3753402233
250,0.3730629385
249,0.3700713813
248,0.3667311072
247,0.3637263179
246,0.3601776063
245,0.356279552
244,0.3516781628
243,0.3479696512
242,0.3442069292
241,0.3405789435
240,0.3367671669
239,0.333340019
238,0.3300344348
237,0.3266591132
236,0.3240602911
235,0.3210157752
234,0.3185139894
233,0.315892607
232,0.3134865165
231,0.3120987713
230,0.3104616106
229,0.3089032769
228,0.3077552617
227,0.3074217141
226,0.3072440028
225,0.3089162111
224,0.3108951151
223,0.3147900105
222,0.3209574521
221,0.3282446265
220,0.339086324
219,0.3524440229
218,0.3682380319
217,0.3860182762
216,0.405828476
215,0.4277110696
214,0.4505350888
213,0.4731948674
212,0.4963664412
211,0.5170205832
210,0.537194252
209,0.5529937744
208,0.5653290749
207,0.5745826364
206,0.5811311603
205,0.5841485262
204,0.5833052397
203,0.5785461068
202,0.5737913251
201,0.5653143525
200,0.5547740459
