Dodecane_KIT_HotWater_A
Wavelength (nm),Abs
2655,0.07873101532
2654,0.07856751233
2653,0.07912892103
2652,0.07957817614
2651,0.07926109433
2650,0.08025258034
2649,0.07987209409
2648,0.08001632243
2647,0.08003044873
2646,0.08040827513
2645,0.08230599016
2644,0.08084906638
2643,0.07997713983
2642,0.07996491343
2641,0.08014086634
2640,0.08043456823
2639,0.08040353656
2638,0.08005877584
2637,0.08111744374
2636,0.07882256061
2635,0.07864515483
2634,0.07989670336
2633,0.08049149066
2632,0.07844497263
2631,0.07624980062
2630,0.07992321253
2629,0.08078078181
2628,0.07933271676
2627,0.08032541722
2626,0.08187981695
2625,0.08046217263
2624,0.08007094264
2623,0.08018018305
2622,0.07963977009
2621,0.07678554207
2620,0.07921402901
2619,0.08235865086
2618,0.08040017635
2617,0.07767463475
2616,0.08134053648
2615,0.08094231039
2614,0.08053807169
2613,0.08170859516
2612,0.08064088225
2611,0.07977083325
2610,0.08004555106
2609,0.08168619126
2608,0.08218599111
2607,0.0821961537
2606,0.08159840852
2605,0.07973462343
2604,0.08249341697
2603,0.07872145623
2602,0.07855714858
2601,0.08065758646
2600,0.08078926057
2599,0.08013124019
2598,0.08055112511
2597,0.07844407111
2596,0.07650167495
2595,0.07998915017
2594,0.08094143867
2593,0.08265943825
2592,0.08217473328
2591,0.07971310616
2590,0.07923848182
2589,0.07884462923
2588,0.08042438328
2587,0.08308932185
2586,0.0804669708
2585,0.07804595679
2584,0.08289243281
2583,0.08204112947
2582,0.07953570783
2581,0.08085674047
2580,0.08230186254
2579,0.08115258068
2578,0.0816686675
2577,0.08257780969
2576,0.08233036846
2575,0.08167069405
2574,0.08229885995
2573,0.08178415149
2572,0.08074514568
2571,0.08112958074
2570,0.08026593924
2569,0.08072669059
2568,0.08100242168
2567,0.08140965551
2566,0.08101240546
2565,0.08185596764
2564,0.07942342758
2563,0.07853481919
2562,0.07928790897
2561,0.08134203404
2560,0.08269482106
2559,0.08176996559
2558,0.08191054314
2557,0.08178190142
2556,0.08183649927
2555,0.08124642074
2554,0.0813563019
2553,0.08093691617
2552,0.0809186101
2551,0.08205807954
2550,0.08194095641
2549,0.08155774325
2548,0.08154889941
2547,0.08203281462
2546,0.08174293488
2545,0.08172796667
2544,0.08126349747
2543,0.08119655401
2542,0.08218314499
2541,0.08181340247
2540,0.08219268173
2539,0.08223263174
2538,0.08181349188
2537,0.08139769733
2536,0.08140369505
2535,0.08194611967
2534,0.08159994334
2533,0.081272237
2532,0.08150549233
2531,0.08172159642
2530,0.08231913298
2529,0.08216954023
2528,0.08219715953
2527,0.08242408931
2526,0.08224163949
2525,0.08197662979
2524,0.08235298842
2523,0.0824059397
2522,0.08218961954
2521,0.08281587064
2520,0.08251275867
2519,0.08243347704
2518,0.08248906583
2517,0.08245617151
2516,0.08232752234
2515,0.08257587254
2514,0.08320643753
2513,0.0827530697
2512,0.08259856701
2511,0.08266121894
2510,0.08281487226
2509,0.08254300058
2508,0.08285640925
2507,0.08260138333
2506,0.08227295429
2505,0.08261707425
2504,0.08271119744
2503,0.08302200586
2502,0.08308850974
2501,0.08306939155
2500,0.08325425535
2499,0.0828724131
2498,0.08285126835
2497,0.08336878568
2496,0.08289149404
2495,0.08323331177
2494,0.08291859925
2493,0.08337853849
2492,0.08348807693
2491,0.08346316963
2490,0.08336731046
2489,0.08323390782
2488,0.0834729895
2487,0.08372531831
2486,0.08349108696
2485,0.08343910426
2484,0.08376722783
2483,0.08343449235
2482,0.08359958977
2481,0.08373229206
2480,0.08364898711
2479,0.08355973661
2478,0.08351543546
2477,0.08388449252
2476,0.08354505152
2475,0.08377450705
2474,0.08356011659
2473,0.08377498388
2472,0.08409364522
2471,0.08396978676
2470,0.08407784253
2469,0.08381265402
2468,0.0842179805
2467,0.08448851109
2466,0.08402889967
2465,0.0840061605
2464,0.08442028612
2463,0.08431283385
2462,0.08420066535
2461,0.08446376771
2460,0.08432531357
2459,0.0844957158
2458,0.08462563902
2457,0.08443886042
2456,0.08445760608
2455,0.08461298794
2454,0.08466331661
2453,0.08459933847
2452,0.08463900536
2451,0.08485947549
2450,0.0849628076
2449,0.08466992527
2448,0.08483184129
2447,0.0847864002
2446,0.08511065692
2445,0.0852433145
2444,0.08515524864
2443,0.08499847353
2442,0.08527778089
2441,0.08519893885
2440,0.08533643931
2439,0.0852599144
2438,0.08529935777
2437,0.0852362588
2436,0.08530723304
2435,0.08554597944
2434,0.08558806032
2433,0.08536911011
2432,0.08575479686
2431,0.08565168083
2430,0.08567277342
2429,0.08582247794
2428,0.08589635789
2427,0.08586651087
2426,0.08605121821
2425,0.08605169505
2424,0.08590651304
2423,0.08613558114
2422,0.086193569
2421,0.08601237088
2420,0.08635352552
2419,0.08626760542
2418,0.08621051908
2417,0.08645030111
2416,0.08650656044
2415,0.08629637212
2414,0.08650892973
2413,0.08659578115
2412,0.08644429594
2411,0.08660292625
2410,0.0869056806
2409,0.08669735491
2408,0.08669669181
2407,0.08713597059
2406,0.08677675575
2405,0.0869378075
2404,0.08726155758
2403,0.08704347908
2402,0.08706422895
2401,0.08741554618
2400,0.08721380681
2399,0.08728539199
2398,0.08749998361
2397,0.0874793455
2396,0.08732184768
2395,0.08778055757
2394,0.08779522777
2393,0.08760426939
2392,0.08789872378
2391,0.08790867776
2390,0.08774903417
2389,0.08811876178
2388,0.08811055124
2387,0.08796299994
2386,0.08813087642
2385,0.08829633892
2384,0.08833637089
2383,0.08832365274
2382,0.08857075125
2381,0.08852086216
2380,0.08849381655
2379,0.08876054734
2378,0.0887511149
2377,0.08878081292
2376,0.08886195719
2375,0.08915199339
2374,0.08906691521
2373,0.08915285021
2372,0.08928127587
2371,0.08919665217
2370,0.08928350359
2369,0.08934245259
2368,0.08962087333
2367,0.08943070471
2366,0.08959522843
2365,0.08980457485
2364,0.08983920515
2363,0.08970551938
2362,0.09017544985
2361,0.09007825702
2360,0.0900285095
2359,0.09013454616
2358,0.09056877345
2357,0.09039342403
2356,0.09036483616
2355,0.0906123668
2354,0.09070346504
2353,0.09064550698
2352,0.09089045972
2351,0.09097030759
2350,0.09094407409
2349,0.09099906683
2348,0.09137908369
2347,0.09144343436
2346,0.09118893743
2345,0.09139694273
2344,0.09174088389
2343,0.09175664932
2342,0.0916602537
2341,0.09187587351
2340,0.09197775275
2339,0.09191761166
2338,0.09197995812
2337,0.09239151329
2336,0.09229811281
2335,0.09228297323
2334,0.09239090234
2333,0.09275249392
2332,0.09256430715
2331,0.09258996695
2330,0.0930147022
2329,0.09309260547
2328,0.09289058298
2327,0.09320429713
2326,0.09341657907
2325,0.09325284511
2324,0.09334526211
2323,0.09366691858
2322,0.09361682087
2321,0.0938405171
2320,0.09395179152
2319,0.09396436065
2318,0.09417980909
2317,0.09404471517
2316,0.09431313723
2315,0.09458891302
2314,0.09470157325
2313,0.09457851201
2312,0.09490092844
2311,0.09491683543
2310,0.09495195001
2309,0.09511587024
2308,0.09520491958
2307,0.09554092586
2306,0.09541276097
2305,0.09557811171
2304,0.09590892494
2303,0.09593816847
2302,0.09599208832
2301,0.09595373273
2300,0.09634883702
2299,0.09620425105
2298,0.09629093111
2297,0.0962176919
2296,0.09678033739
2295,0.0969652757
2294,0.09676264226
2293,0.09677988291
2292,0.0971673876
2291,0.09730028361
2290,0.09716978669
2289,0.097555466
2288,0.09760086983
2287,0.0976472497
2286,0.09753557295
2285,0.09775140136
2284,0.09849088639
2283,0.09857065231
2282,0.09835763276
2281,0.09858141094
2280,0.09869231284
2279,0.09872682393
2278,0.09900339693
2277,0.09845562279
2276,0.09924536198
2275,0.09949000925
2274,0.09920792282
2273,0.09957174957
2272,0.09995549917
2271,0.1000470743
2270,0.09980826825
2269,0.1002271771
2268,0.100486666
2267,0.1009301022
2266,0.1005369127
2265,0.1009015664
2264,0.1006904915
2263,0.1009026095
2262,0.1014827415
2261,0.1014795378
2260,0.1012565866
2259,0.1020846739
2258,0.1019702107
2257,0.1022115797
2256,0.1018281952
2255,0.1019528955
2254,0.1027577817
2253,0.1027642116
2252,0.1026509851
2251,0.1028519869
2250,0.1030335873
2249,0.1032654718
2248,0.1036240384
2247,0.1034696847
2246,0.1036808938
2245,0.1040098742
2244,0.1041247472
2243,0.1043895334
2242,0.1043306142
2241,0.1043271571
2240,0.1048309803
2239,0.1049806774
2238,0.1048602387
2237,0.1052262336
2236,0.1053592041
2235,0.1057322547
2234,0.1057879701
2233,0.1058690846
2232,0.106096305
2231,0.1066610888
2230,0.1065269858
2229,0.1065529883
2228,0.1066891477
2227,0.1071385741
2226,0.1074741259
2225,0.1075222045
2224,0.1076568142
2223,0.1077343002
2222,0.1079743803
2221,0.1085848883
2220,0.1085685641
2219,0.1085007638
2218,0.1086239144
2217,0.108907491
2216,0.1091994122
2215,0.109396182
2214,0.1094320789
2213,0.1097336188
2212,0.1101909727
2211,0.1106050014
2210,0.1106552929
2209,0.1105295643
2208,0.1108061448
2207,0.1112228259
2206,0.1114798337
2205,0.1117709801
2204,0.1118589863
2203,0.1118960232
2202,0.111971058
2201,0.1125088558
2200,0.1125474572
2199,0.1126622632
2198,0.1127670631
2197,0.1129076332
2196,0.1133248657
2195,0.1135254204
2194,0.1137432307
2193,0.113792643
2192,0.1139578149
2191,0.1140971258
2190,0.1145941541
2189,0.114896737
2188,0.1151192784
2187,0.1150107086
2186,0.1151723638
2185,0.1154767349
2184,0.1157846302
2183,0.1160337329
2182,0.1162197143
2181,0.1161649525
2180,0.1164525524
2179,0.1167932525
2178,0.1170666665
2177,0.1173067391
2176,0.1173999757
2175,0.1176250279
2174,0.1177932248
2173,0.1183796227
2172,0.1185853556
2171,0.1187990829
2170,0.1190149188
2169,0.1189984381
2168,0.1193786263
2167,0.1196700707
2166,0.1200618967
2165,0.120257467
2164,0.1203352585
2163,0.1204572991
2162,0.1206680834
2161,0.1211056635
2160,0.1214707196
2159,0.1216260567
2158,0.121941261
2157,0.1221887097
2156,0.1222028062
2155,0.122673355
2154,0.1226829663
2153,0.1230150163
2152,0.1233550236
2151,0.1235463023
2150,0.123660028
2149,0.1240166202
2148,0.1244817302
2147,0.124591209
2146,0.1249799505
2145,0.1250218153
2144,0.1251461208
2143,0.1253890693
2142,0.1258124262
2141,0.1261114031
2140,0.1264354885
2139,0.1265942752
2138,0.1269804835
2137,0.1271688193
2136,0.1273647398
2135,0.1277752519
2134,0.1281049848
2133,0.1281549931
2132,0.1285771132
2131,0.1287639141
2130,0.1290225238
2129,0.1292108446
2128,0.1294493228
2127,0.1297694892
2126,0.1300760955
2125,0.1304017901
2124,0.1308989078
2123,0.1309925318
2122,0.1312128603
2121,0.1315034926
2120,0.1319098026
2119,0.1320983618
2118,0.1324861646
2117,0.1328739524
2116,0.1331938356
2115,0.133385241
2114,0.1336945891
2113,0.134061709
2112,0.1342234462
2111,0.1344671994
2110,0.1348277032
2109,0.1351677626
2108,0.135599941
2107,0.1360110193
2106,0.1362096965
2105,0.1364100873
2104,0.136729151
2103,0.1370073855
2102,0.1374228597
2101,0.1377889216
2100,0.1379742771
2099,0.1384401321
2098,0.1388298869
2097,0.1390803754
2096,0.1395977437
2095,0.1397604942
2094,0.1399821192
2093,0.1403432935
2092,0.140806675
2091,0.1410110295
2090,0.1413110942
2089,0.1417585462
2088,0.1421060562
2087,0.1425504833
2086,0.1428620368
2085,0.1432347894
2084,0.1434617192
2083,0.1438191831
2082,0.1441874951
2081,0.1445546001
2080,0.1448453069
2079,0.1452846676
2078,0.1456923038
2077,0.1458979249
2076,0.1463846862
2075,0.146762833
2074,0.147009626
2073,0.1474882662
2072,0.1479012519
2071,0.1482441425
2070,0.1484136134
2069,0.1488291323
2068,0.1492628306
2067,0.1496746391
2066,0.1500929296
2065,0.1504509151
2064,0.1507028788
2063,0.1510619521
2062,0.1516695917
2061,0.1519535631
2060,0.1523781419
2059,0.1526611447
2058,0.1529543549
2057,0.1535635889
2056,0.1538973451
2055,0.1543403864
2054,0.1545637995
2053,0.1552551538
2052,0.1555290818
2051,0.1558469087
2050,0.1562826186
2049,0.1566821337
2048,0.1570161879
2047,0.1573099196
2046,0.1578692645
2045,0.1582886726
2044,0.1585451216
2043,0.1590092778
2042,0.1594992727
2041,0.159898296
2040,0.1602787971
2039,0.1605615914
2038,0.1610033065
2037,0.1613789201
2036,0.1617337763
2035,0.162241444
2034,0.1626297534
2033,0.1629173011
2032,0.163574174
2031,0.1639969796
2030,0.164212957
2029,0.1647081077
2028,0.1649992168
2027,0.1654256582
2026,0.166073367
2025,0.1662742049
2024,0.1668516695
2023,0.1671511531
2022,0.1675962061
2021,0.1679607481
2020,0.1682970375
2019,0.1688720435
2018,0.1692122519
2017,0.1695649624
2016,0.170002535
2015,0.1704466045
2014,0.1709097624
2013,0.1712416261
2012,0.171612516
2011,0.1719828695
2010,0.1724530309
2009,0.1726961434
2008,0.1732300222
2007,0.1735518128
2006,0.1739419103
2005,0.1743471026
2004,0.1748436838
2003,0.1751992553
2002,0.1755418926
2001,0.1759075075
2000,0.1762998104
1999,0.1769015044
1998,0.1772408187
1997,0.1777155101
1996,0.1780114621
1995,0.1783789992
1994,0.178874597
1993,0.1791814715
1992,0.1796741337
1991,0.1799670458
1990,0.1803087592
1989,0.180753991
1988,0.1811589897
1987,0.1814271957
1986,0.1818351299
1985,0.1822260469
1984,0.1827824414
1983,0.182982713
1982,0.183404997
1981,0.1837931424
1980,0.184092477
1979,0.1844783574
1978,0.1848375052
1977,0.1851848215
1976,0.1856502593
1975,0.1859777719
1974,0.1862990409
1973,0.1866285205
1972,0.1870485097
1971,0.1874008328
1970,0.1878575087
1969,0.1880780309
1968,0.1884345859
1967,0.1887419671
1966,0.1891700178
1965,0.1894881427
1964,0.189821288
1963,0.1901310682
1962,0.1904740185
1961,0.1909169853
1960,0.1912317723
1959,0.1915943027
1958,0.1918351948
1957,0.1922901571
1956,0.1926198155
1955,0.1928628683
1954,0.1933487207
1953,0.1935721338
1952,0.1940409243
1951,0.1943826079
1950,0.1947662681
1949,0.1951107532
1948,0.1954078078
1947,0.1956145167
1946,0.1959623545
1945,0.1964471787
1944,0.1967761815
1943,0.1972434819
1942,0.1975030452
1941,0.197861135
1940,0.1981773525
1939,0.1986302584
1938,0.1990366429
1937,0.1993089467
1936,0.1996405721
1935,0.1999466121
1934,0.2004526258
1933,0.2007823735
1932,0.2010333538
1931,0.2014323175
1930,0.2015886456
1929,0.20206438
1928,0.2025226355
1927,0.2029111534
1926,0.2031663954
1925,0.2034732699
1924,0.2040199637
1923,0.2043267041
1922,0.2042412311
1921,0.2047660798
1920,0.2058111131
1919,0.2059990615
1918,0.2059182823
1917,0.206383124
1916,0.2067814171
1915,0.207001999
1914,0.2076290101
1913,0.2079817206
1912,0.2081654668
1911,0.2087254226
1910,0.2090624869
1909,0.2093221694
1908,0.2094171941
1907,0.2097664922
1906,0.2108541429
1905,0.2111194879
1904,0.211304009
1903,0.2117197365
1902,0.2118351161
1901,0.2119691968
1900,0.212618351
1899,0.2131789774
1898,0.2134999484
1897,0.2138197273
1896,0.2140790373
1895,0.2142877579
1894,0.2146733403
1893,0.2152223885
1892,0.2153097987
1891,0.2156981081
1890,0.2163317651
1889,0.2166077644
1888,0.2167990357
1887,0.2171555161
1886,0.2174526304
1885,0.2176096141
1884,0.2181333005
1883,0.2184017152
1882,0.2186261863
1881,0.2190110832
1880,0.2194219828
1879,0.2193980068
1878,0.219661966
1877,0.2201851308
1876,0.2205641419
1875,0.2204342633
1874,0.220719412
1873,0.2214368284
1872,0.2215618342
1871,0.2217939943
1870,0.2222367674
1869,0.2223464102
1868,0.2230234742
1867,0.2234305292
1866,0.2230888456
1865,0.223191008
1864,0.2236658335
1863,0.2238398641
1862,0.2237851769
1861,0.2239467949
1860,0.2246956676
1859,0.2248621881
1858,0.2248290479
1857,0.2250579149
1856,0.2253184617
1855,0.2250937223
1854,0.2256045789
1853,0.2260931283
1852,0.225869
1851,0.2258244455
1850,0.2257651091
1849,0.2259027362
1848,0.2264657915
1847,0.2268710583
1846,0.2266547233
1845,0.2265053391
1844,0.2264828831
1843,0.2263726592
1842,0.2267880142
1841,0.227109611
1840,0.2269819826
1839,0.2271205634
1838,0.2269212604
1837,0.2270656824
1836,0.2272342145
1835,0.2274505794
1834,0.227202937
1833,0.2269887924
1832,0.2269769162
1831,0.2271909267
1830,0.2272104025
1829,0.2272295356
1828,0.2270913124
1827,0.2268197834
1826,0.2271239758
1825,0.2268872559
1824,0.2266545892
1823,0.2266265005
1822,0.2266421169
1821,0.2265347391
1820,0.2265373915
1819,0.2263559699
1818,0.2261895537
1817,0.225922823
1816,0.2259481251
1815,0.2258690745
1814,0.2255481035
1813,0.2253857404
1812,0.2253371626
1811,0.2251037657
1810,0.2250133157
1809,0.2249402255
1808,0.2245269865
1807,0.2244734615
1806,0.2243328094
1805,0.2239903361
1804,0.2237130255
1803,0.2235624343
1802,0.2233291268
1801,0.223225981
1800,0.2229996324
1799,0.2227718979
1798,0.2225091904
1797,0.2222576141
1796,0.2220061868
1795,0.2216344476
1794,0.2214924246
1793,0.2212076634
1792,0.2210188061
1791,0.2206833214
1790,0.2203354836
1789,0.2202058434
1788,0.219908908
1787,0.2195855677
1786,0.2192626297
1785,0.219016701
1784,0.2187183946
1783,0.2183376402
1782,0.2181776613
1781,0.2178452462
1780,0.2174041569
1779,0.2172206938
1778,0.2168783545
1777,0.2165834755
1776,0.2163306624
1775,0.2159025818
1774,0.21562244
1773,0.2153188139
1772,0.2149970829
1771,0.2146767378
1770,0.214310959
1769,0.2140137404
1768,0.2137045413
1767,0.213430509
1766,0.2130896598
1765,0.2126905322
1764,0.2124318331
1763,0.2120495439
1762,0.2117988616
1761,0.2114933729
1760,0.2110806853
1759,0.2108128816
1758,0.2104224861
1757,0.2101623118
1756,0.2097708136
1755,0.2095242888
1754,0.2091050893
1753,0.2088534534
1752,0.2084833831
1751,0.2081224918
1750,0.2078270167
1749,0.2074391693
1748,0.2071350962
1747,0.2068302482
1746,0.2064634413
1745,0.2061586976
1744,0.2058386505
1743,0.2054779828
1742,0.2051129043
1741,0.2047705948
1740,0.20432733
1739,0.2041513324
1738,0.203805536
1737,0.2034676969
1736,0.2030779719
1735,0.2027950734
1734,0.2022884786
1733,0.2019434869
1732,0.2016730607
1731,0.2013358921
1730,0.2009522766
1729,0.2005200237
1728,0.2002515048
1727,0.1999037862
1726,0.1995584369
1725,0.1991346925
1724,0.198769629
1723,0.198373422
1722,0.1980719268
1721,0.1976576746
1720,0.1973121464
1719,0.1969171464
1718,0.1964744478
1717,0.1961310357
1716,0.195753932
1715,0.1954225749
1714,0.1949785948
1713,0.1946333796
1712,0.1942714602
1711,0.1938036978
1710,0.1934066266
1709,0.1931198537
1708,0.1926438659
1707,0.1923756152
1706,0.1918669343
1705,0.1913897246
1704,0.1910495013
1703,0.1906046718
1702,0.1902706027
1701,0.1898060143
1700,0.1894030124
1699,0.1889695376
1698,0.1885892898
1697,0.1881908029
1696,0.1878035367
1695,0.1874093562
1694,0.1868493706
1693,0.186487034
1692,0.1860692948
1691,0.1857289374
1690,0.18533656
1689,0.1848468632
1688,0.184346199
1687,0.1839980483
1686,0.1835817099
1685,0.1831559688
1684,0.1826855242
1683,0.1823210865
1682,0.1818864048
1681,0.1815713644
1680,0.1810460985
1679,0.1805962026
1678,0.1802457571
1677,0.1797620803
1676,0.1793904155
1675,0.1790632606
1674,0.1785811335
1673,0.1782034338
1672,0.1778036803
1671,0.1774063855
1670,0.176986903
1669,0.1766933203
1668,0.1761492938
1667,0.1758180559
1666,0.1754660457
1665,0.174982354
1664,0.1746384501
1663,0.1741070002
1662,0.1736917794
1661,0.1732986122
1660,0.172935918
1659,0.1725797802
1658,0.1721314043
1657,0.1717471182
1656,0.1713131219
1655,0.1709778011
1654,0.1705744416
1653,0.170079723
1652,0.1697087288
1651,0.1693596095
1650,0.1688771993
1649,0.1685524881
1648,0.168090865
1647,0.1677327305
1646,0.167365104
1645,0.1669987738
1644,0.1666189879
1643,0.1661749184
1642,0.1656864434
1641,0.1653831899
1640,0.1649995595
1639,0.1645766497
1638,0.164268434
1637,0.16380395
1636,0.1634317786
1635,0.163058877
1634,0.1626884788
1633,0.1622560322
1632,0.1618691832
1631,0.1615151912
1630,0.1611307263
1629,0.1607138515
1628,0.1604270786
1627,0.160032317
1626,0.1596224308
1625,0.1593548357
1624,0.1589644402
1623,0.1585381478
1622,0.1582021415
1621,0.1578761786
1620,0.1574841291
1619,0.1570782512
1618,0.1567551345
1617,0.1563587934
1616,0.1560366601
1615,0.1557462215
1614,0.155383423
1613,0.1550479531
1612,0.1547379494
1611,0.1544112265
1610,0.154109329
1609,0.1537755728
1608,0.1533734351
1607,0.1531578004
1606,0.1527346671
1605,0.1524992734
1604,0.1522292048
1603,0.1518848091
1602,0.151564002
1601,0.1513049304
1600,0.1509767026
1599,0.1507846415
1598,0.1504640877
1597,0.1501544118
1596,0.1499729156
1595,0.1495919228
1594,0.1493377835
1593,0.149135232
1592,0.1488893181
1591,0.1485462189
1590,0.1483561695
1589,0.1481864601
1588,0.1478681415
1587,0.1475295573
1586,0.1474195272
1585,0.1471850574
1584,0.1469371915
1583,0.1466852129
1582,0.1465010643
1581,0.1462937444
1580,0.1460351944
1579,0.1458440721
1578,0.1456493437
1577,0.1453898549
1576,0.1452080309
1575,0.1450096071
1574,0.1448522508
1573,0.144664064
1572,0.1444083154
1571,0.1442267448
1570,0.1440447867
1569,0.1439060569
1568,0.1437122375
1567,0.143493861
1566,0.1433629394
1565,0.1431837529
1564,0.1430183053
1563,0.1428208202
1562,0.1426720172
1561,0.1425319612
1560,0.1423866451
1559,0.1422213912
1558,0.1420548111
1557,0.1418917775
1556,0.14173989
1555,0.1415626258
1554,0.1414404958
1553,0.1413749009
1552,0.1411555707
1551,0.1410339624
1550,0.1408978403
1549,0.1407715231
1548,0.1406712383
1547,0.1405406743
1546,0.1403510273
1545,0.1401848048
1544,0.1401088089
1543,0.1399949044
1542,0.1398859769
1541,0.1396825165
1540,0.1396180987
1539,0.1395317763
1538,0.1394035965
1537,0.1392687261
1536,0.1392314434
1535,0.1390711069
1534,0.1390060484
1533,0.1389233023
1532,0.1388088018
1531,0.1386688054
1530,0.1385903805
1529,0.1385005563
1528,0.1383635253
1527,0.138281256
1526,0.1381814033
1525,0.1380784363
1524,0.138054356
1523,0.1379162371
1522,0.137848109
1521,0.1377878189
1520,0.1376271546
1519,0.1376009583
1518,0.1375765204
1517,0.137453869
1516,0.137316525
1515,0.1372586787
1514,0.1372368038
1513,0.1371982098
1512,0.137037158
1511,0.1369988024
1510,0.136890009
1509,0.1368477196
1508,0.1368020028
1507,0.1367189437
1506,0.1366392225
1505,0.1365452409
1504,0.1364527941
1503,0.1365638524
1502,0.1364170313
1501,0.1363503784
1500,0.1362462938
1499,0.1362614781
1498,0.1361356676
1497,0.1361527443
1496,0.1360864788
1495,0.1359811723
1494,0.135968715
1493,0.1359205693
1492,0.1359067708
1491,0.135782674
1490,0.1357895732
1489,0.135702461
1488,0.1356954873
1487,0.1356449723
1486,0.1356194317
1485,0.1354807913
1484,0.135534972
1483,0.1354653686
1482,0.1354048401
1481,0.135384962
1480,0.1352790147
1479,0.1353222579
1478,0.1352536082
1477,0.135208264
1476,0.1351863891
1475,0.1351036727
1474,0.1350772083
1473,0.1351066381
1472,0.1350284815
1471,0.1350092292
1470,0.1349577308
1469,0.1349323839
1468,0.1349309683
1467,0.1349192113
1466,0.1348360777
1465,0.1347617954
1464,0.1347324848
1463,0.1347389817
1462,0.1347207278
1461,0.1346405745
1460,0.1346151978
1459,0.1346007288
1458,0.1345366091
1457,0.1345325857
1456,0.1345129609
1455,0.1345258802
1454,0.1344660372
1453,0.1344185621
1452,0.1343737245
1451,0.1344098449
1450,0.1344068795
1449,0.1343580633
1448,0.1343249381
1447,0.1342755407
1446,0.1342096329
1445,0.1342137903
1444,0.1341934055
1443,0.1341408044
1442,0.1341565698
1441,0.1341135204
1440,0.1340822279
1439,0.134043619
1438,0.1340657622
1437,0.1340643466
1436,0.134006232
1435,0.1339086592
1434,0.1339344084
1433,0.1339074224
1432,0.1339263469
1431,0.1338825524
1430,0.133761853
1429,0.1337892264
1428,0.1338023692
1427,0.1337980628
1426,0.1337543875
1425,0.1336856335
1424,0.1336682141
1423,0.1336821467
1422,0.1336054206
1421,0.133591935
1420,0.1335706413
1419,0.1335546523
1418,0.1335425824
1417,0.133528322
1416,0.1334432065
1415,0.1334858984
1414,0.1333904117
1413,0.1334378868
1412,0.1334135383
1411,0.1333020478
1410,0.1333244294
1409,0.1333495975
1408,0.1333386451
1407,0.1332581788
1406,0.1332652569
1405,0.1332481503
1404,0.1333106309
1403,0.133193627
1402,0.1331840903
1401,0.1332450956
1400,0.1331833452
1399,0.1331615746
1398,0.133067742
1397,0.1330754757
1396,0.1331183463
1395,0.1331283003
1394,0.1330361664
1393,0.1329838485
1392,0.1331368536
1391,0.1330215782
1390,0.1329027712
1389,0.1329516023
1388,0.1329832077
1387,0.1329258382
1386,0.1329111755
1385,0.1328843832
1384,0.1328781992
1383,0.1329625398
1382,0.1329338104
1381,0.1329004467
1380,0.1328280121
1379,0.1327607036
1378,0.1327847838
1377,0.13276124
1376,0.1327010095
1375,0.1325935274
1374,0.1325487494
1373,0.1325122118
1372,0.1325033605
1371,0.1325726658
1370,0.1325025558
1369,0.1324249506
1368,0.1324875951
1367,0.1324839443
1366,0.1323468238
1365,0.1323988587
1364,0.1323908865
1363,0.1322986633
1362,0.1324822605
1361,0.1324248463
1360,0.132322669
1359,0.1323404014
1358,0.1322849393
1357,0.1322391629
1356,0.1322393417
1355,0.1321837008
1354,0.1322897822
1353,0.1322757006
1352,0.1321987957
1351,0.1322169751
1350,0.1322227716
1349,0.132171914
1348,0.1321889013
1347,0.132157743
1346,0.1321900934
1345,0.1321654171
1344,0.1321479082
1343,0.1321089268
1342,0.1321507245
1341,0.1321570426
1340,0.1321520507
1339,0.1321574599
1338,0.1321914345
1337,0.1321958154
1336,0.1321931779
1335,0.1321980208
1334,0.1321896017
1333,0.1321881264
1332,0.1321485043
1331,0.1322066188
1330,0.132229507
1329,0.1322961003
1328,0.1322294027
1327,0.1322302073
1326,0.1322915405
1325,0.1322606504
1324,0.1322690696
1323,0.1322742701
1322,0.1322782338
1321,0.1322999895
1320,0.1323751211
1319,0.1323818266
1318,0.1323649138
1317,0.1323767006
1316,0.1324439049
1315,0.1324663162
1314,0.1324515641
1313,0.1325480044
1312,0.1324848533
1311,0.1325689852
1310,0.1325810254
1309,0.1326515377
1308,0.1325775087
1307,0.1326594055
1306,0.1327189952
1305,0.1327801049
1304,0.1327949762
1303,0.1328216493
1302,0.1328635067
1301,0.1329249591
1300,0.1329689324
1299,0.132970199
1298,0.1330237836
1297,0.1330695003
1296,0.133111313
1295,0.1332570463
1294,0.1332367808
1293,0.1332678944
1292,0.1333331168
1291,0.1334177256
1290,0.1335068792
1289,0.1335718632
1288,0.1335775703
1287,0.1336328536
1286,0.1336778998
1285,0.1338011324
1284,0.1338704973
1283,0.1339517832
1282,0.1339700371
1281,0.1340759546
1280,0.1341528296
1279,0.1342479587
1278,0.1343139112
1277,0.1343868822
1276,0.1344485134
1275,0.1345179379
1274,0.1346614361
1273,0.1347489804
1272,0.1348287612
1271,0.1349538565
1270,0.1349987835
1269,0.1351507753
1268,0.1352473944
1267,0.1353268176
1266,0.1354492456
1265,0.1355307549
1264,0.1356642544
1263,0.1357748955
1262,0.1358679384
1261,0.1359648257
1260,0.1361377984
1259,0.1362341344
1258,0.1363963038
1257,0.136498794
1256,0.1366627961
1255,0.1367802173
1254,0.1369186491
1253,0.1370116472
1252,0.1371919662
1251,0.1372902393
1250,0.1374527365
1249,0.137585327
1248,0.1377384663
1247,0.13787435
1246,0.1380253285
1245,0.1381968111
1244,0.138317734
1243,0.1385424286
1242,0.1386710852
1241,0.1387919337
1240,0.1389552355
1239,0.1391329765
1238,0.1393188834
1237,0.1394373178
1236,0.1396336257
1235,0.1397521049
1234,0.1399999857
1233,0.1401818991
1232,0.1403585374
1231,0.1405358016
1230,0.1406996548
1229,0.1409062147
1228,0.1411054879
1227,0.1413526684
1226,0.1414813399
1225,0.1416275352
1224,0.1418955475
1223,0.142074272
1222,0.142334938
1221,0.1424984634
1220,0.1427528411
1219,0.1429134309
1218,0.1431585848
1217,0.1433867365
1216,0.1436104774
1215,0.1438520104
1214,0.1440764517
1213,0.1443224847
1212,0.1445392221
1211,0.1448539793
1210,0.145070985
1209,0.1452964842
1208,0.1455429494
1207,0.1458382756
1206,0.1460767835
1205,0.1463346481
1204,0.1466293782
1203,0.1468643248
1202,0.1471783072
1201,0.1474454403
1200,0.1477053463
1199,0.1478468925
1198,0.1481256187
1197,0.1483965665
1196,0.1486578137
1195,0.148999542
1194,0.1492939293
1193,0.1496311575
1192,0.1498827636
1191,0.1501715332
1190,0.1504863352
1189,0.1508115232
1188,0.1511312723
1187,0.1514151841
1186,0.1517199874
1185,0.1520216316
1184,0.1523656547
1183,0.1527011395
1182,0.1530533582
1181,0.1532978266
1180,0.1536083072
1179,0.1539677083
1178,0.1542960256
1177,0.1546058208
1176,0.1549868435
1175,0.1552615911
1174,0.1555959284
1173,0.1559106261
1172,0.156239748
1171,0.1565600932
1170,0.1569089144
1169,0.1572193056
1168,0.1575235724
1167,0.1578869373
1166,0.1581828445
1165,0.158471033
1164,0.15884763
1163,0.1591895819
1162,0.1594759077
1161,0.1598090976
1160,0.160126701
1159,0.1604848057
1158,0.1608777344
1157,0.1611817181
1156,0.1614817381
1155,0.1618315727
1154,0.1621979624
1153,0.1625590175
1152,0.1629272699
1151,0.1632875055
1150,0.163626954
1149,0.1639896184
1148,0.1644010395
1147,0.1647921205
1146,0.165188089
1145,0.1655483544
1144,0.1659940332
1143,0.1664485186
1142,0.1668609083
1141,0.1673122346
1140,0.1676884741
1139,0.1681345254
1138,0.1686770171
1137,0.1690716296
1136,0.1695981622
1135,0.1700995713
1134,0.1705965996
1133,0.1710825711
1132,0.1716409922
1131,0.172145173
1130,0.1726146638
1129,0.1731501818
1128,0.1737047881
1127,0.1742497385
1126,0.174797371
1125,0.1753953993
1124,0.1758820117
1123,0.1764975041
1122,0.1770582646
1121,0.1776098907
1120,0.1782302707
1119,0.1788343489
1118,0.179323718
1117,0.1799209267
1116,0.1805152297
1115,0.1810101271
1114,0.18162857
1113,0.182235539
1112,0.1827588975
1111,0.1832932234
1110,0.1838274449
1109,0.1843667775
1108,0.1848962307
1107,0.1854605973
1106,0.1859884113
1105,0.1863897741
1104,0.1868987232
1103,0.1873769909
1102,0.1878868788
1101,0.1883505732
1100,0.1887299716
1099,0.1891371608
1098,0.1895658374
1097,0.1899500191
1096,0.1903153807
1095,0.1906752586
1094,0.1909637451
1093,0.1912761927
1092,0.191616267
1091,0.1918896735
1090,0.1921065301
1089,0.1923596561
1088,0.1926589459
1087,0.1928746104
1086,0.1930392683
1085,0.1932548732
1084,0.1934185475
1083,0.1936405748
1082,0.1938542128
1081,0.1940208673
1080,0.1941433251
1079,0.1943290383
1078,0.1944973171
1077,0.194646135
1076,0.1948304325
1075,0.1949573904
1074,0.1951224357
1073,0.195355922
1072,0.1955285519
1071,0.1957544535
1070,0.1959535033
1069,0.1961488128
1068,0.1963656396
1067,0.1965900362
1066,0.1968708336
1065,0.1970757246
1064,0.197346881
1063,0.1976871789
1062,0.1979998797
1061,0.1982593983
1060,0.1985464692
1059,0.1988189667
1058,0.1991327256
1057,0.19952856
1056,0.1999028921
1055,0.2002293468
1054,0.2005354613
1053,0.2009736449
1052,0.2013281137
1051,0.2017731071
1050,0.2021776289
1049,0.202503562
1048,0.2028561383
1047,0.2033109367
1046,0.2035737783
1045,0.2040229589
1044,0.2043881267
1043,0.2047472894
1042,0.2050397992
1041,0.2054671943
1040,0.2057492882
1039,0.2060541809
1038,0.2063591033
1037,0.2066610008
1036,0.2069472224
1035,0.2071478665
1034,0.2074286938
1033,0.2076002508
1032,0.2078110129
1031,0.2079599202
1030,0.2081001699
1029,0.2082066387
1028,0.2082912773
1027,0.2083501071
1026,0.2084269077
1025,0.2085570246
1024,0.2084945589
1023,0.2085296512
1022,0.2085147202
1021,0.2084494531
1020,0.2083801478
1019,0.2082986683
1018,0.2081638277
1017,0.2080956995
1016,0.207984522
1015,0.2078640759
1014,0.2077181339
1013,0.2075152546
1012,0.2073470652
1011,0.2072047144
1010,0.2069991976
1009,0.2067908645
1008,0.2065180838
1007,0.2063575238
1006,0.2061310261
1005,0.2059335858
1004,0.2056794167
1003,0.205328986
1002,0.2051326185
1001,0.2048125416
1000,0.204642579
999,0.204309836
998,0.2040055245
997,0.2036743909
996,0.203423202
995,0.2031188756
994,0.2027093619
993,0.2024328411
992,0.2020503581
991,0.2016892135
990,0.2013808787
989,0.2009717226
988,0.2006473392
987,0.2002501935
986,0.1999286115
985,0.199476555
984,0.1991031766
983,0.1987974793
982,0.1983853132
981,0.1979439706
980,0.1976180077
979,0.1972590983
978,0.1969634593
977,0.1965218186
976,0.1963027418
975,0.1959493905
974,0.1955873966
973,0.1952663958
972,0.194954142
971,0.1945786774
970,0.1942884624
969,0.193977356
968,0.193604514
967,0.1934195906
966,0.1931733638
965,0.1928125024
964,0.1925243586
963,0.192277506
962,0.1919432729
961,0.1917190552
960,0.1914373487
959,0.1911453754
958,0.1908273995
957,0.1905243099
956,0.1903104931
955,0.1899112165
954,0.1896551549
953,0.1893523186
952,0.1889710128
951,0.1886339635
950,0.1884438097
949,0.1879923344
948,0.187634632
947,0.1872997284
946,0.1870440543
945,0.1866734326
944,0.1862643063
943,0.1858342737
942,0.185384199
941,0.1850377917
940,0.1847416461
939,0.1844052374
938,0.1839738488
937,0.1836061627
936,0.1831361651
935,0.1827830672
934,0.1824710667
933,0.1820911467
932,0.1816102862
931,0.1813524365
930,0.1808705032
929,0.1805172414
928,0.1801011562
927,0.1797776222
926,0.1793764979
925,0.1788943261
924,0.178625226
923,0.1780863553
922,0.1776934862
921,0.1773745716
920,0.1769546121
919,0.1764669269
918,0.176255092
917,0.1756611615
916,0.1752750129
915,0.1750198752
914,0.1746710688
913,0.1740505397
912,0.1736891121
911,0.1733941883
910,0.1730352342
909,0.1724813432
908,0.1721272469
907,0.1718344241
906,0.1714255065
905,0.1708526015
904,0.1708781868
903,0.1704290062
902,0.1701184064
901,0.1695328355
900,0.1691675335
899,0.1701411158
898,0.1677892208
897,0.1691595912
896,0.1737063378
895,0.1692861021
894,0.1701484025
893,0.166084826
892,0.1666686088
891,0.160815537
890,0.1692541391
889,0.1716662496
888,0.1701577008
887,0.1703329682
886,0.1655286402
885,0.1665968448
884,0.1667489111
883,0.1669809371
882,0.1678482592
881,0.1654102057
880,0.1640873551
879,0.1664477289
878,0.1655714363
877,0.1670911014
876,0.1658958942
875,0.1629312634
874,0.1685780585
873,0.1648031324
872,0.1655126959
871,0.164729327
870,0.1628244817
869,0.1606084257
868,0.1646319628
867,0.1633400619
866,0.1617107838
865,0.1629572213
864,0.1641078293
863,0.1617277265
862,0.1629638225
861,0.1631353796
860,0.1625733227
859,0.1629664153
858,0.1619851589
857,0.1628203392
856,0.1637302339
855,0.161937952
854,0.1619414091
853,0.1624524891
852,0.1617930233
851,0.1617552638
850,0.1622544229
849,0.1616769731
848,0.162106365
847,0.1620667428
846,0.1608773619
845,0.1614250094
844,0.1608555317
843,0.1611859947
842,0.1614320725
841,0.1615018696
840,0.1612839252
839,0.1610794067
838,0.1615817696
837,0.1607303321
836,0.1612924486
835,0.1610345095
834,0.1609557271
833,0.1616287529
832,0.1613159329
831,0.1607815027
830,0.1619782448
829,0.1618224382
828,0.1620742977
827,0.1615037471
826,0.1619817019
825,0.1618781686
824,0.1618061364
823,0.1620150506
822,0.1627051979
821,0.1623287797
820,0.162434876
819,0.1626711637
818,0.1631819308
817,0.1631617546
816,0.1632418185
815,0.1630857885
814,0.1634017974
813,0.163153097
812,0.1634946167
811,0.1643866003
810,0.1647447944
809,0.1646019369
808,0.1647022367
807,0.1650771946
806,0.1655373573
805,0.1655270159
804,0.1654239148
803,0.1660017371
802,0.1661991328
801,0.1663502455
800,0.166687727
799,0.1667484045
798,0.1671007276
797,0.1679021716
796,0.1679245532
795,0.1682493687
794,0.168093726
793,0.168234691
792,0.1685938984
791,0.1689538211
790,0.1689163446
789,0.1693243235
788,0.1695028841
787,0.1699505746
786,0.1698774546
785,0.1699818969
784,0.1705831438
783,0.1704987586
782,0.1709051281
781,0.1710080802
780,0.1715924889
779,0.1716842353
778,0.1723089367
777,0.1725084037
776,0.1726261079
775,0.1728412658
774,0.1731829643
773,0.173674047
772,0.1744041443
771,0.1742670089
770,0.1749826968
769,0.1752990484
768,0.17575939
767,0.1764831692
766,0.1764701456
765,0.1772442907
764,0.1775267124
763,0.1781967133
762,0.1788196117
761,0.1791402549
760,0.1801309437
759,0.1805965155
758,0.1807503849
757,0.1816106886
756,0.182056427
755,0.1827952862
754,0.1827648878
753,0.1834549457
752,0.1838212907
751,0.1844412684
750,0.1849084646
749,0.1854307353
748,0.1857954711
747,0.1858000457
746,0.1862447858
745,0.1863195151
744,0.1868578494
743,0.1870880127
742,0.1872341484
741,0.1874502152
740,0.1878778934
739,0.1876563281
738,0.1879721433
737,0.1880385876
736,0.1883639991
735,0.1881505251
734,0.1882175207
733,0.1882667094
732,0.1883785427
731,0.1884699762
730,0.1885723472
729,0.1885860562
728,0.1886360496
727,0.1886103898
726,0.1887641251
725,0.1888768375
724,0.1891200691
723,0.1891591698
722,0.1893777847
721,0.1894575059
720,0.1895460933
719,0.1897083223
718,0.189981252
717,0.1900911927
716,0.189989239
715,0.1904770285
714,0.1907591969
713,0.1907968223
712,0.1910568178
711,0.1913339049
710,0.1914718598
709,0.1914971322
708,0.1916572303
707,0.19180803
706,0.1919481903
705,0.191924274
704,0.1921535879
703,0.1921502948
702,0.1924454868
701,0.1923554987
700,0.1922817379
699,0.192188248
698,0.1923028231
697,0.1919284165
696,0.1921223998
695,0.1919500381
694,0.1918664426
693,0.1918835938
692,0.1916522533
691,0.1915924847
690,0.191360727
689,0.1911721826
688,0.1907406002
687,0.1906722486
686,0.1904420257
685,0.1905854046
684,0.1902596951
683,0.1902115643
682,0.1897685528
681,0.1897954345
680,0.1895391643
679,0.1894138157
678,0.1891892552
677,0.1890683472
676,0.188924104
675,0.1888700426
674,0.1884580702
673,0.1883952767
672,0.1880730391
671,0.1879030317
670,0.1875819564
669,0.1875557601
668,0.1873081774
667,0.1870796531
666,0.1870024353
665,0.1867281944
664,0.1866877675
663,0.1864375323
662,0.1862502694
661,0.1861588955
660,0.1860876083
659,0.1858458668
658,0.185762316
657,0.185668394
656,0.1855235398
655,0.1854719073
654,0.1852751523
653,0.1852948666
652,0.1850986332
651,0.1850049645
650,0.1850388497
649,0.1848232001
648,0.1845549643
647,0.1846791804
646,0.1844486594
645,0.1843479425
644,0.1841223091
643,0.1842748821
642,0.1839395165
641,0.1836704761
640,0.1834679842
639,0.1835268736
638,0.1833641231
637,0.1832728833
636,0.182951197
635,0.1828177273
634,0.1828363836
633,0.1826105118
632,0.1823374033
631,0.1821837127
630,0.1822383404
629,0.1821182072
628,0.1820468605
627,0.1820724607
626,0.1819020659
625,0.1817801297
624,0.1818336397
623,0.1816915423
622,0.1815571189
621,0.1815567315
620,0.1815718263
619,0.1814803332
618,0.1814429909
617,0.1815360487
616,0.1813718826
615,0.1815925092
614,0.1815434843
613,0.1814133972
612,0.1814495623
611,0.1817077845
610,0.1817546785
609,0.1818300188
608,0.1818984449
607,0.1819894761
606,0.1821935177
605,0.1821830571
604,0.1826370358
603,0.1828002632
602,0.1829317063
601,0.1834916025
600,0.1833782643
599,0.1838178784
598,0.1840666533
597,0.1843053102
596,0.1846471727
595,0.184642151
594,0.1851800233
593,0.1853376627
592,0.1855159551
591,0.1856899112
590,0.1857869774
589,0.1860822439
588,0.1861701161
587,0.1864106506
586,0.1864536703
585,0.1866564155
584,0.1866340041
583,0.1868324876
582,0.1868035644
581,0.1868516356
580,0.1867593378
579,0.1870444864
578,0.1872274578
577,0.1872486174
576,0.1874659508
575,0.1876276135
574,0.1879345179
573,0.1882842481
572,0.1883664727
571,0.1888936758
570,0.1894546598
569,0.1895727962
568,0.1901931018
567,0.1906977445
566,0.1914099157
565,0.1918236464
564,0.1921832412
563,0.1927301884
562,0.1931351274
561,0.1935812682
560,0.1941916198
559,0.194550842
558,0.1948147863
557,0.1952002048
556,0.1954967976
555,0.1955742687
554,0.1958937198
553,0.1957922429
552,0.1958991587
551,0.1956641972
550,0.195512265
549,0.1955393851
548,0.1953357458
547,0.1950621903
546,0.1949573904
545,0.1947480738
544,0.1947230548
543,0.1944685578
542,0.1944543868
541,0.1943779886
540,0.1943907887
539,0.1946948916
538,0.1949167997
537,0.195061177
536,0.1951420754
535,0.1958355159
534,0.1962379068
533,0.1964670867
532,0.1967958957
531,0.1973662972
530,0.1977223158
529,0.1980796903
528,0.1984400898
527,0.1989669353
526,0.1993869841
525,0.1997219622
524,0.2000526637
523,0.1999165863
522,0.2003876567
521,0.2005189955
520,0.2008480877
519,0.2009098828
518,0.2006301582
517,0.2006587088
516,0.2008594722
515,0.2009152621
514,0.2008332461
513,0.2008482963
512,0.2010984272
511,0.2011615634
510,0.2014603615
509,0.2017732412
508,0.2019767463
507,0.2020273209
506,0.2023512423
505,0.2027109265
504,0.2032172382
503,0.2038197219
502,0.2044176757
501,0.2046871036
500,0.2054048777
499,0.2060589194
498,0.2065727711
497,0.2072160244
496,0.2076445967
495,0.208213836
494,0.208697632
493,0.2088260204
492,0.2090175003
491,0.2091777772
490,0.2092612237
489,0.2089420557
488,0.2085848898
487,0.2084904462
486,0.2079013288
485,0.2074293941
484,0.2074520588
483,0.2070499063
482,0.2067433298
481,0.2066748738
480,0.206633091
479,0.2065614313
478,0.2068101615
477,0.2071400583
476,0.2072274983
475,0.2078306973
474,0.208331719
473,0.209018454
472,0.2096354812
471,0.2102916837
470,0.2107032388
469,0.2108685821
468,0.2118884921
467,0.2120089233
466,0.212237969
465,0.2120414972
464,0.2120705992
463,0.2117731422
462,0.2117502987
461,0.2112505734
460,0.2108001411
459,0.2103465199
458,0.2102167457
457,0.2098880261
456,0.209799096
455,0.2096520066
454,0.2094601393
453,0.2098505944
452,0.2100644708
451,0.2102292627
450,0.210435465
449,0.2109213322
448,0.2115176767
447,0.2117237896
446,0.2122640014
445,0.2126863152
444,0.2132671177
443,0.2137213498
442,0.2139743865
441,0.2144346982
440,0.2145826966
439,0.2148542404
438,0.2150540799
437,0.2152366638
436,0.2157687247
435,0.2157615721
434,0.2160105258
433,0.2162073106
432,0.2167708427
431,0.2169519812
430,0.217085734
429,0.2175371498
428,0.2182395607
427,0.2186419368
426,0.2189382613
425,0.2193483263
424,0.2201259881
423,0.2207198888
422,0.2210708261
421,0.2213517427
420,0.2215694636
419,0.2219043523
418,0.2217472345
417,0.2219191939
416,0.2222867757
415,0.2223944068
414,0.2223909497
413,0.222682938
412,0.2229185402
411,0.2231289595
410,0.2234044522
409,0.2241599262
408,0.2248141468
407,0.2251387537
406,0.2258812338
405,0.2262231559
404,0.2271483839
403,0.2280267477
402,0.2286698222
401,0.2291811854
400,0.229346022
399,0.2304647863
398,0.2305639535
397,0.2314815968
396,0.2313548326
395,0.2315276414
394,0.2315512449
393,0.2321282923
392,0.2326187193
391,0.2328769416
390,0.2332884669
389,0.2338158488
388,0.2340767831
387,0.2348671705
386,0.2354572713
385,0.2355950326
384,0.236093387
383,0.2370489389
382,0.2378131449
381,0.238645345
380,0.2391234636
379,0.2402618974
378,0.240803495
377,0.2419681698
376,0.2425312251
375,0.2435067743
374,0.2439833432
373,0.2453538328
372,0.246013388
371,0.2466985583
370,0.2474596798
369,0.2479680032
368,0.248287648
367,0.2493380457
366,0.2497214526
365,0.2503929138
364,0.2501918077
363,0.2508170605
362,0.2515178025
361,0.2525545955
360,0.2533423007
359,0.2541343272
358,0.25530985
357,0.2563789785
356,0.2578648031
355,0.2586173117
354,0.2594682872
353,0.2607501149
352,0.2618347406
351,0.2630345523
350,0.2635296881
349,0.262570709
348,0.2636273205
347,0.2643983066
346,0.2641465366
345,0.2657240331
344,0.2662480772
343,0.2676182091
342,0.2685243785
341,0.2695828974
340,0.2713725269
339,0.271763593
338,0.2728595436
337,0.2740767002
336,0.2756796181
335,0.2773542702
334,0.2780904174
333,0.2786468565
332,0.2801642418
331,0.2809499502
330,0.2825856805
329,0.2834949791
328,0.2843915224
327,0.2852744162
326,0.287117511
325,0.2883476615
324,0.2889688909
323,0.2914345562
322,0.2930141389
321,0.294968009
320,0.2972435355
319,0.298687011
318,0.3001076877
317,0.3026237786
316,0.3042964637
315,0.3054641783
314,0.3079562187
313,0.3096142113
312,0.3113244176
311,0.3131827712
310,0.3157915771
309,0.3170498013
308,0.3192354143
307,0.3221313655
306,0.3241931498
305,0.3271681368
304,0.3297974467
303,0.3314058185
302,0.3343055248
301,0.3362816274
300,0.338583827
299,0.3407769501
298,0.343690455
297,0.345954299
296,0.3479906023
295,0.3507676125
294,0.3542194366
293,0.3558768034
292,0.3592687249
291,0.3618731201
290,0.3644215465
289,0.367431581
288,0.3698688447
287,0.3726726472
286,0.3751837015
285,0.3772607148
284,0.380114913
283,0.3825058639
282,0.3847849965
281,0.3863838613
280,0.3886688054
279,0.3897843659
278,0.3917464614
277,0.3939195871
276,0.3946620822
275,0.3963758051
274,0.3968664408
273,0.3975957334
272,0.3980713785
271,0.3986997902
270,0.3985973299
269,0.3984190226
268,0.3983951807
267,0.3979840577
266,0.3974927962
265,0.3972157538
264,0.39668715
263,0.395309329
262,0.394418925
261,0.3927163184
260,0.3914699256
259,0.3905194998
258,0.3886478841
257,0.3867177069
256,0.3856357634
255,0.3839328587
254,0.3819613457
253,0.3790868223
252,0.3770646751
251,0.3742655814
250,0.37164554
249,0.3685996234
248,0.3652186394
247,0.3618170023
246,0.3580236733
245,0.3546022177
244,0.3503938913
243,0.3464911282
242,0.3429104984
241,0.3390336037
240,0.3353817165
239,0.3317523897
238,0.3280915022
237,0.32538715
236,0.3222932518
235,0.3196177185
234,0.3172745407
233,0.3142126203
232,0.3122823834
231,0.3099600077
230,0.3081557155
229,0.3070254922
228,0.3056591451
227,0.3050834537
226,0.3052447438
225,0.3059237301
224,0.3086511791
223,0.312337935
222,0.3179260194
221,0.3251804411
220,0.3353289366
219,0.3484048843
218,0.3647831976
217,0.3818901777
216,0.4026193619
215,0.4248629212
214,0.4471505284
213,0.4708501101
212,0.4940186441
211,0.515669167
210,0.5347148776
209,0.5512379408
208,0.5650263429
207,0.57461375
206,0.5815976858
205,0.5835455656
204,0.583601594
203,0.5787775517
202,0.573636353
201,0.565023303
200,0.5546659231
