Dodecane_KIT_Vac_1300
Wavelength (nm),Abs
2655,0.07652912289
2654,0.07646660507
2653,0.07924248278
2652,0.07949315012
2651,0.07795722783
2650,0.07855863869
2649,0.0783758536
2648,0.0782796517
2647,0.07837957144
2646,0.08065334707
2645,0.08046808839
2644,0.0790804401
2643,0.07923229784
2642,0.07823142409
2641,0.07878435403
2640,0.07835684717
2639,0.07929728925
2638,0.07827779651
2637,0.07883308828
2636,0.07738743722
2635,0.076454781
2634,0.07715705782
2633,0.07872856408
2632,0.07489322871
2631,0.07070435584
2630,0.07934996486
2629,0.07899849117
2628,0.07742406428
2627,0.07790376991
2626,0.08065540344
2625,0.07924885303
2624,0.07871608436
2623,0.07936773449
2622,0.07714858651
2621,0.07527710497
2620,0.07733172178
2619,0.07992358506
2618,0.07729967684
2617,0.07733051479
2616,0.07916115969
2615,0.07909584045
2614,0.07840778679
2613,0.08021870255
2612,0.07916982472
2611,0.07794846594
2610,0.07821716368
2609,0.07921955734
2608,0.07976047695
2607,0.07926093787
2606,0.08004831523
2605,0.07766720653
2604,0.07932137698
2603,0.07865834236
2602,0.07764318585
2601,0.0792042464
2600,0.07980707288
2599,0.07880263776
2598,0.07802900672
2597,0.07687094063
2596,0.07217563689
2595,0.08003241569
2594,0.07787054032
2593,0.07994741946
2592,0.08003506064
2591,0.07864972204
2590,0.07767581195
2589,0.07758367062
2588,0.07948276401
2587,0.08143985271
2586,0.07915771008
2585,0.07622385025
2584,0.08000101149
2583,0.08060353994
2582,0.07826244831
2581,0.07957478613
2580,0.08045179397
2579,0.07975614816
2578,0.07960743457
2577,0.081730932
2576,0.08140385151
2575,0.07968825102
2574,0.08042357117
2573,0.08160031587
2572,0.08043655753
2571,0.07984804362
2570,0.07942383736
2569,0.08003316075
2568,0.080111444
2567,0.08039475232
2566,0.08014114201
2565,0.08098307997
2564,0.07908006757
2563,0.07811585814
2562,0.07736435533
2561,0.08056711406
2560,0.08241952211
2559,0.08127935231
2558,0.08037805557
2557,0.08055415004
2556,0.08079537749
2555,0.08117754757
2554,0.08052878082
2553,0.07988313586
2552,0.07967052609
2551,0.08018186688
2550,0.08109354973
2549,0.08092930913
2548,0.08032554388
2547,0.08142792434
2546,0.0809167996
2545,0.08082406223
2544,0.08057733625
2543,0.08085087687
2542,0.08108893037
2541,0.08067376167
2540,0.08127573133
2539,0.08097568899
2538,0.08133965731
2537,0.08058471978
2536,0.08082617819
2535,0.08105058223
2534,0.0808384344
2533,0.0804592073
2532,0.08065253496
2531,0.08101118356
2530,0.08142764121
2529,0.08098941296
2528,0.08118781447
2527,0.08145474643
2526,0.08171205968
2525,0.08172430843
2524,0.08188416064
2523,0.08208657056
2522,0.08143610507
2521,0.08186259866
2520,0.08186109364
2519,0.08180387318
2518,0.08166991919
2517,0.08158135414
2516,0.08174709231
2515,0.08188135177
2514,0.08227389306
2513,0.08180515468
2512,0.08195768297
2511,0.08191619813
2510,0.082370013
2509,0.08170881122
2508,0.08208146691
2507,0.08210514486
2506,0.08191720396
2505,0.0819048509
2504,0.08208440989
2503,0.0823539272
2502,0.08244618773
2501,0.08232611418
2500,0.08261785656
2499,0.082432881
2498,0.08231685311
2497,0.08255714923
2496,0.08248490095
2495,0.08246709406
2494,0.08242543787
2493,0.08259819448
2492,0.08264496922
2491,0.08260247856
2490,0.08292671293
2489,0.08231466264
2488,0.08267146349
2487,0.08308085799
2486,0.08280447125
2485,0.08280515671
2484,0.08314023167
2483,0.08301445097
2482,0.08288478851
2481,0.08310765773
2480,0.08284177631
2479,0.08299937844
2478,0.08307418227
2477,0.08327056468
2476,0.08305895329
2475,0.08312621713
2474,0.08302476257
2473,0.08313465118
2472,0.08345171809
2471,0.08358985931
2470,0.08359252661
2469,0.08315552771
2468,0.08332873136
2467,0.08375193924
2466,0.08345206082
2465,0.08356601745
2464,0.08382879198
2463,0.08370739967
2462,0.08363803476
2461,0.08391856402
2460,0.08382367343
2459,0.08375297487
2458,0.08377344161
2457,0.08376358449
2456,0.0838913098
2455,0.08414262533
2454,0.08427213132
2453,0.08405952901
2452,0.08428017795
2451,0.08435957879
2450,0.08417276293
2449,0.08406565338
2448,0.0843244642
2447,0.0843879655
2446,0.08452797681
2445,0.08459047228
2444,0.0845425725
2443,0.08439812064
2442,0.0848004967
2441,0.08450338989
2440,0.08464010805
2439,0.08468238264
2438,0.08493029326
2437,0.08456666023
2436,0.08482217789
2435,0.08499715477
2434,0.08483986557
2433,0.08487423509
2432,0.08518385142
2431,0.08497398347
2430,0.08516470343
2429,0.08524697274
2428,0.08521622419
2427,0.08522665501
2426,0.08548684418
2425,0.08543635905
2424,0.08521714061
2423,0.08560234308
2422,0.08571335673
2421,0.08543597907
2420,0.08573385328
2419,0.08572997898
2418,0.08545870334
2417,0.08581345528
2416,0.08585663885
2415,0.08562220633
2414,0.08590168506
2413,0.08591919392
2412,0.08575312793
2411,0.08602016419
2410,0.08626592904
2409,0.08603076637
2408,0.08616916835
2407,0.08644477278
2406,0.08611465245
2405,0.08628553897
2404,0.08645927161
2403,0.08643157035
2402,0.0863655284
2401,0.08677314967
2400,0.08658737689
2399,0.08668489754
2398,0.08682771027
2397,0.08674236387
2396,0.08668186516
2395,0.08716447651
2394,0.08712401241
2393,0.08700431883
2392,0.0872496292
2391,0.08728896827
2390,0.08705793321
2389,0.08752864599
2388,0.08752883226
2387,0.0873169452
2386,0.08745075017
2385,0.08754846454
2384,0.08751857281
2383,0.08779414743
2382,0.08789324015
2381,0.08783112466
2380,0.08795884997
2379,0.08815506846
2378,0.08814593405
2377,0.08803036809
2376,0.08829205483
2375,0.08832257241
2374,0.08831657469
2373,0.08842571825
2372,0.08870120347
2371,0.08850746602
2370,0.08866815269
2369,0.08882085979
2368,0.08889575303
2367,0.08884702623
2366,0.08895678073
2365,0.08911506087
2364,0.08909786493
2363,0.0891405493
2362,0.08952902257
2361,0.08943137527
2360,0.08928601444
2359,0.08961581439
2358,0.0899477154
2357,0.08970676363
2356,0.08978353441
2355,0.09006271511
2354,0.08984834701
2353,0.09002188593
2352,0.09024968743
2351,0.09027588367
2350,0.09030316025
2349,0.09049715847
2348,0.09067098796
2347,0.09072122723
2346,0.09060956538
2345,0.09083452076
2344,0.09104376286
2343,0.09098087251
2342,0.09097123891
2341,0.091284208
2340,0.09126673639
2339,0.09121599048
2338,0.09145774692
2337,0.09161767364
2336,0.0914914906
2335,0.09165366739
2334,0.09179130942
2333,0.09200744331
2332,0.09189176559
2331,0.09205089509
2330,0.09235129505
2329,0.09234197438
2328,0.0922755748
2327,0.09256536514
2326,0.0927683264
2325,0.09254483134
2324,0.09264613688
2323,0.09317266941
2322,0.09290593863
2321,0.09311149269
2320,0.09339150786
2319,0.093360506
2318,0.09355933964
2317,0.09346222132
2316,0.09364771843
2315,0.09394449741
2314,0.09387640655
2313,0.09393324703
2312,0.09434411675
2311,0.0944031477
2310,0.09415411204
2309,0.09451588988
2308,0.09473576397
2307,0.09471566975
2306,0.09478824586
2305,0.09488678724
2304,0.09512063861
2303,0.0951346904
2302,0.0951173529
2301,0.0954586491
2300,0.09556182474
2299,0.09548231959
2298,0.09571168572
2297,0.09572849423
2296,0.09608447552
2295,0.09625952691
2294,0.09613628685
2293,0.09633310139
2292,0.09675960243
2291,0.09660498053
2290,0.09659233689
2289,0.09703029692
2288,0.09695440531
2287,0.09699301422
2286,0.09694482386
2285,0.09730283916
2284,0.09770355374
2283,0.09794658422
2282,0.09775506705
2281,0.09799929708
2280,0.09832503647
2279,0.09791048616
2278,0.09828663617
2277,0.09813188761
2276,0.09895462543
2275,0.09896115959
2274,0.09863474965
2273,0.09892748296
2272,0.0994380936
2271,0.09933135659
2270,0.09945065528
2269,0.09943770617
2268,0.09986088425
2267,0.1002318412
2266,0.09984622151
2265,0.1002689525
2264,0.1003915444
2263,0.1003062874
2262,0.1010342985
2261,0.100727506
2260,0.1008897722
2259,0.1013121828
2258,0.1012313887
2257,0.1015545577
2256,0.1012465134
2255,0.1015438661
2254,0.1020438746
2253,0.1022407338
2252,0.1018865108
2251,0.1022450924
2250,0.1025767922
2249,0.1026612446
2248,0.1028240696
2247,0.1029311493
2246,0.1031555906
2245,0.1034670845
2244,0.1035778746
2243,0.1037978455
2242,0.1036612764
2241,0.1039190069
2240,0.1042855233
2239,0.1044944599
2238,0.1043880507
2237,0.1046710908
2236,0.1049304456
2235,0.1053058282
2234,0.1051400229
2233,0.1052282453
2232,0.1055176333
2231,0.1060403213
2230,0.1060691699
2229,0.106098555
2228,0.106048815
2227,0.1066384837
2226,0.1067124158
2225,0.1067751348
2224,0.1067830846
2223,0.1072397605
2222,0.1072927117
2221,0.1078288555
2220,0.1078251377
2219,0.1079945266
2218,0.1083106548
2217,0.1084920913
2216,0.1087341532
2215,0.1088804156
2214,0.1091210023
2213,0.1094425395
2212,0.1096279845
2211,0.1100209579
2210,0.1099148542
2209,0.1101211533
2208,0.1104438379
2207,0.1107466817
2206,0.1110346913
2205,0.1111896187
2204,0.1112862006
2203,0.1112636924
2202,0.1117078364
2201,0.1121172085
2200,0.1120129004
2199,0.1119357497
2198,0.1122313887
2197,0.1123493612
2196,0.1128394604
2195,0.1130857021
2194,0.1129635051
2193,0.1133139059
2192,0.1132759675
2191,0.1134390607
2190,0.1140408441
2189,0.1143144816
2188,0.1142416373
2187,0.1143052876
2186,0.1145555675
2185,0.1150482595
2184,0.1152791157
2183,0.1151523143
2182,0.115598999
2181,0.1155620441
2180,0.1158145741
2179,0.1162720174
2178,0.1164217889
2177,0.1169206351
2176,0.1168040931
2175,0.1169570312
2174,0.1172059923
2173,0.1178414077
2172,0.1179466471
2171,0.1179089472
2170,0.1182361096
2169,0.1184848249
2168,0.1188404635
2167,0.1192045659
2166,0.1192508265
2165,0.1195470616
2164,0.1197847575
2163,0.1197268441
2162,0.1201155186
2161,0.1205369681
2160,0.1208595857
2159,0.1209516004
2158,0.121314846
2157,0.1216026992
2156,0.1216737404
2155,0.1219055057
2154,0.1220296323
2153,0.1223270521
2152,0.122773625
2151,0.1228085533
2150,0.1229934394
2149,0.1235305443
2148,0.1239166483
2147,0.1239926144
2146,0.1242287308
2145,0.1243756488
2144,0.1246882007
2143,0.1248191223
2142,0.125263676
2141,0.1254807413
2140,0.1257711947
2139,0.1261646003
2138,0.1264038682
2137,0.1265850216
2136,0.1266255677
2135,0.1270071864
2134,0.1275342405
2133,0.1277558208
2132,0.1279744208
2131,0.1281858981
2130,0.1283623129
2129,0.1287433952
2128,0.129058212
2127,0.129309088
2126,0.1296208352
2125,0.1299291253
2124,0.1302147061
2123,0.1304245889
2122,0.130629316
2121,0.1310155243
2120,0.1313159317
2119,0.1315371394
2118,0.1318797171
2117,0.1322595924
2116,0.1324476004
2115,0.1327195168
2114,0.1331702322
2113,0.1334594637
2112,0.1337447315
2111,0.1340512782
2110,0.1342996955
2109,0.1346646398
2108,0.1350514442
2107,0.1352303922
2106,0.1356205642
2105,0.1358865201
2104,0.1362669468
2103,0.136415869
2102,0.1368193179
2101,0.1371912807
2100,0.137450248
2099,0.1379162371
2098,0.1382362694
2097,0.1385660768
2096,0.138917312
2095,0.139260307
2094,0.1395733654
2093,0.1397668868
2092,0.1401934773
2091,0.1405568421
2090,0.1408266276
2089,0.1412556171
2088,0.1416351497
2087,0.1419893652
2086,0.1423362046
2085,0.142445609
2084,0.1429494768
2083,0.1434412003
2082,0.1437321305
2081,0.1441660225
2080,0.144429788
2079,0.1448052377
2078,0.1452164501
2077,0.1454137713
2076,0.1459176689
2075,0.1461987346
2074,0.1464326531
2073,0.147015661
2072,0.1474269778
2071,0.1478527933
2070,0.1479313821
2069,0.1484692544
2068,0.1489233375
2067,0.1492104232
2066,0.1496983767
2065,0.1500272155
2064,0.1504433006
2063,0.1505615413
2062,0.1511170417
2061,0.1515143961
2060,0.1519465446
2059,0.1523841769
2058,0.1525260806
2057,0.1530914754
2056,0.1534761041
2055,0.1539165676
2054,0.1542377919
2053,0.1547462791
2052,0.1551272273
2051,0.1554103643
2050,0.1557979584
2049,0.1562360674
2048,0.1567172259
2047,0.156938225
2046,0.1575056762
2045,0.1579248458
2044,0.1581060886
2043,0.1586135179
2042,0.1591855139
2041,0.1595077813
2040,0.1599418521
2039,0.1602928638
2038,0.1606627703
2037,0.1609431207
2036,0.1613925844
2035,0.1619510055
2034,0.1623490602
2033,0.1626195461
2032,0.1631460488
2031,0.1635175794
2030,0.1639251262
2029,0.1644314229
2028,0.1647516787
2027,0.1650914401
2026,0.1656706333
2025,0.1659996808
2024,0.1664209068
2023,0.1667775661
2022,0.1671511978
2021,0.1675871313
2020,0.1679713428
2019,0.1686213017
2018,0.168877691
2017,0.1693844646
2016,0.1696605235
2015,0.1701872796
2014,0.1704726964
2013,0.1709124893
2012,0.1713062972
2011,0.1716438681
2010,0.1720617265
2009,0.1724452972
2008,0.1729348004
2007,0.1733155102
2006,0.1736830026
2005,0.1741247922
2004,0.1745732874
2003,0.1748439521
2002,0.175394401
2001,0.1757136434
2000,0.1760413945
1999,0.176524058
1998,0.1768964827
1997,0.1774319857
1996,0.1776993275
1995,0.1781482548
1994,0.1784514934
1993,0.1788980365
1992,0.1794178039
1991,0.1795965433
1990,0.1800136566
1989,0.1803936064
1988,0.1807523817
1987,0.1812355965
1986,0.1814929992
1985,0.1818588227
1984,0.1823607534
1983,0.1826297045
1982,0.1830762178
1981,0.1835635304
1980,0.1836827248
1979,0.1842874736
1978,0.1845601797
1977,0.1849009395
1976,0.185367614
1975,0.1856903434
1974,0.1859921068
1973,0.1863252819
1972,0.1867721528
1971,0.1870790869
1970,0.1874878407
1969,0.1877723783
1968,0.1881153136
1967,0.1884818077
1966,0.1889110208
1965,0.189281106
1964,0.1895447224
1963,0.1898652464
1962,0.1902335435
1961,0.1907438934
1960,0.1910318285
1959,0.1913789511
1958,0.1917593479
1957,0.1920997649
1956,0.1923937201
1955,0.1927197874
1954,0.1930059195
1953,0.1933332533
1952,0.1938183308
1951,0.1940795034
1950,0.1945148259
1949,0.1948971301
1948,0.1952394545
1947,0.1954459697
1946,0.1958326697
1945,0.1962355524
1944,0.196606487
1943,0.1969938129
1942,0.1971369684
1941,0.1975131631
1940,0.1979539841
1939,0.1983428895
1938,0.1987785846
1937,0.1991375238
1936,0.199518472
1935,0.1997514367
1934,0.2001142651
1933,0.2004391104
1932,0.2008493245
1931,0.2011728734
1930,0.2014417052
1929,0.2019823492
1928,0.20235084
1927,0.2027705461
1926,0.2029204071
1925,0.2031616867
1924,0.2039274275
1923,0.2041943818
1922,0.203962788
1921,0.204576686
1920,0.2056417167
1919,0.205829829
1918,0.2058825195
1917,0.2061828673
1916,0.2066562474
1915,0.2068505883
1914,0.207570821
1913,0.2079442441
1912,0.207955271
1911,0.2085629255
1910,0.2090718597
1909,0.2092190534
1908,0.2094150633
1907,0.2095131725
1906,0.2108321488
1905,0.2111440748
1904,0.2110057771
1903,0.2115800381
1902,0.2116981596
1901,0.2119016945
1900,0.2126414031
1899,0.213230744
1898,0.213426277
1897,0.2137759328
1896,0.214003399
1895,0.2141573578
1894,0.2146677822
1893,0.2152258754
1892,0.2151280642
1891,0.2155421078
1890,0.2161807865
1889,0.2164867669
1888,0.2166452855
1887,0.2170013785
1886,0.2173325866
1885,0.2175370306
1884,0.2180520296
1883,0.2183925956
1882,0.2186228335
1881,0.2189547718
1880,0.2193411142
1879,0.219388485
1878,0.2197058797
1877,0.2202148288
1876,0.2205397934
1875,0.2204414755
1874,0.2206770331
1873,0.2212055922
1872,0.2214973867
1871,0.2218524069
1870,0.2223615795
1869,0.2220816016
1868,0.2228171229
1867,0.2233467847
1866,0.2229515761
1865,0.2231865972
1864,0.2236122936
1863,0.2237866521
1862,0.2235915065
1861,0.2239217013
1860,0.2245322317
1859,0.2247067392
1858,0.2246656567
1857,0.225140065
1856,0.2251112908
1855,0.2249845117
1854,0.2256032377
1853,0.2260111868
1852,0.2258922458
1851,0.2258082032
1850,0.2257401645
1849,0.2256643772
1848,0.2264718115
1847,0.2268426567
1846,0.2265197784
1845,0.2264316976
1844,0.2264027894
1843,0.2262470871
1842,0.2266720384
1841,0.2270897776
1840,0.2270400971
1839,0.2269594073
1838,0.2267419845
1837,0.2271208763
1836,0.2271918803
1835,0.2273318022
1834,0.227055192
1833,0.2268607169
1832,0.2269794941
1831,0.226955086
1830,0.2270248532
1829,0.2271690816
1828,0.2270284742
1827,0.2267363966
1826,0.2270254195
1825,0.2268020213
1824,0.2266168147
1823,0.226586327
1822,0.2263084501
1821,0.2266800702
1820,0.2265574187
1819,0.2263336927
1818,0.2260292619
1817,0.2258733511
1816,0.225797981
1815,0.225856021
1814,0.2255101651
1813,0.2252999395
1812,0.2252639234
1811,0.2251105905
1810,0.2249001265
1809,0.2247473896
1808,0.2244686931
1807,0.2243937403
1806,0.2242144048
1805,0.2239315063
1804,0.2235764712
1803,0.2234878987
1802,0.2232132107
1801,0.2231379598
1800,0.2229256332
1799,0.222638756
1798,0.2224636078
1797,0.2221198827
1796,0.2219603658
1795,0.2216064185
1794,0.2213496715
1793,0.2211482227
1792,0.2208374292
1791,0.2206509113
1790,0.2202375233
1789,0.2201853842
1788,0.2198284715
1787,0.2195038944
1786,0.2191332579
1785,0.2188840657
1784,0.2186133713
1783,0.2182497829
1782,0.218132481
1781,0.2178245634
1780,0.2174061239
1779,0.2171892822
1778,0.216727227
1777,0.2165088058
1776,0.2162503302
1775,0.2159217894
1774,0.2156067044
1773,0.2151698768
1772,0.2148907036
1771,0.2146476209
1770,0.2142290026
1769,0.2139870971
1768,0.2135406584
1767,0.2133650482
1766,0.212895751
1765,0.2126005292
1764,0.2123542875
1763,0.2120012939
1762,0.2116057426
1761,0.2112883031
1760,0.21087569
1759,0.2106831819
1758,0.2103447467
1757,0.2100539356
1756,0.2095921934
1755,0.2093231678
1754,0.2090132684
1753,0.2087664455
1752,0.2083731145
1751,0.2080313265
1750,0.2077355385
1749,0.2072982043
1748,0.2070068717
1747,0.2067116648
1746,0.2062911242
1745,0.2061047256
1744,0.2057650089
1743,0.2051610649
1742,0.2049975544
1741,0.2046460211
1740,0.2042577118
1739,0.2039760351
1738,0.203613326
1737,0.2032757252
1736,0.202939868
1735,0.2025605589
1734,0.2022617459
1733,0.2017647922
1732,0.201474309
1731,0.2012171745
1730,0.2007165253
1729,0.2004312277
1728,0.2000029385
1727,0.1996230334
1726,0.1993763745
1725,0.1989137679
1724,0.198534742
1723,0.198205471
1722,0.1978123933
1721,0.1975063831
1720,0.1970879436
1719,0.196657896
1718,0.1962766796
1717,0.1959404945
1716,0.1955638379
1715,0.1952073872
1714,0.1947343647
1713,0.1944370866
1712,0.1940487027
1711,0.1935996115
1710,0.1932299584
1709,0.1928160191
1708,0.1924072206
1707,0.192151621
1706,0.1916396469
1705,0.1912209839
1704,0.1907746643
1703,0.1903335154
1702,0.1899416894
1701,0.1895686388
1700,0.1891493201
1699,0.1888394058
1698,0.1882523298
1697,0.1879177541
1696,0.1875504702
1695,0.1871051043
1694,0.1866297573
1693,0.1862115264
1692,0.1858012378
1691,0.1854218096
1690,0.1850893646
1689,0.1845804155
1688,0.1841445714
1687,0.1837433428
1686,0.1833041161
1685,0.1828660816
1684,0.182501182
1683,0.1821436286
1682,0.1815945953
1681,0.1812684834
1680,0.180783391
1679,0.1802993119
1678,0.1799344122
1677,0.1795033514
1676,0.1790916026
1675,0.178680107
1674,0.1782477945
1673,0.1778814942
1672,0.1775381267
1671,0.1771349758
1670,0.1767308414
1669,0.1762878746
1668,0.1758306324
1667,0.1754304171
1666,0.1751000583
1665,0.1747133434
1664,0.1742566973
1663,0.1738261729
1662,0.1734429747
1661,0.173024863
1660,0.1726264507
1659,0.1722132862
1658,0.1718075573
1657,0.1714403331
1656,0.171008572
1655,0.1706318408
1654,0.1701763123
1653,0.1697945595
1652,0.1693647355
1651,0.1690068692
1650,0.1685876399
1649,0.1681798548
1648,0.1677204669
1647,0.1673718393
1646,0.1670204103
1645,0.1666492671
1644,0.1662947834
1643,0.165806815
1642,0.1654070169
1641,0.1650116295
1640,0.1646078378
1639,0.1642696708
1638,0.1638570875
1637,0.163455233
1636,0.1630657315
1635,0.1626664549
1634,0.162310347
1633,0.161938712
1632,0.161496684
1631,0.1611094177
1630,0.1607689857
1629,0.1603507251
1628,0.1600695103
1627,0.159684822
1626,0.1592876315
1625,0.1589404494
1624,0.1585678756
1623,0.1581113786
1622,0.1577846706
1621,0.1574313194
1620,0.1570916623
1619,0.1566753685
1618,0.1563449949
1617,0.155999437
1616,0.1556168646
1615,0.1553531289
1614,0.1549606174
1613,0.1545584053
1612,0.1543011665
1611,0.1539967209
1610,0.1536447704
1609,0.1533516943
1608,0.1530228704
1607,0.1526746601
1606,0.1523110569
1605,0.1520638019
1604,0.1518133879
1603,0.1514250934
1602,0.1510968059
1601,0.150881052
1600,0.1504992247
1599,0.150255233
1598,0.1499804854
1597,0.1497048438
1596,0.1494423151
1595,0.1491775364
1594,0.1488762945
1593,0.148688212
1592,0.1483688056
1591,0.1481001973
1590,0.147835657
1589,0.1476513445
1588,0.1473595202
1587,0.1470839679
1586,0.1469340324
1585,0.1466708481
1584,0.146432519
1583,0.1461606026
1582,0.146011278
1581,0.1458024532
1580,0.1455958039
1579,0.1453505307
1578,0.1451160014
1577,0.1448902637
1576,0.1447063684
1575,0.1445402652
1574,0.1443442404
1573,0.1440997869
1572,0.1438980252
1571,0.1437601298
1570,0.1435659379
1569,0.1434318274
1568,0.1431717575
1567,0.1429982036
1566,0.1428325474
1565,0.1426591873
1564,0.1424593031
1563,0.1423434615
1562,0.1422129571
1561,0.1419585347
1560,0.1418343931
1559,0.1417256892
1558,0.1415089071
1557,0.1413755417
1556,0.1412253678
1555,0.1410229653
1554,0.1409118772
1553,0.140817523
1552,0.1406349838
1551,0.1404599696
1550,0.1403901875
1549,0.1401959509
1548,0.1401445419
1547,0.139984116
1546,0.1398277581
1545,0.1397342831
1544,0.1395490915
1543,0.1394953728
1542,0.13931714
1541,0.1391752809
1540,0.1391049922
1539,0.1390097141
1538,0.1388629228
1537,0.1387468278
1536,0.1386944652
1535,0.1385593116
1534,0.1384935826
1533,0.1383903921
1532,0.1382643133
1531,0.1380828768
1530,0.1380511522
1529,0.1379693449
1528,0.1378424913
1527,0.1377252787
1526,0.1376515031
1525,0.137565285
1524,0.1374737918
1523,0.1373970658
1522,0.137291342
1521,0.1372396052
1520,0.1371265352
1519,0.1370610893
1518,0.1370161474
1517,0.1368736178
1516,0.1368043423
1515,0.1366730928
1514,0.1366851777
1513,0.1366333067
1512,0.1364970654
1511,0.1364558786
1510,0.1363536716
1509,0.1363044977
1508,0.1362834573
1507,0.1361686736
1506,0.1361134946
1505,0.1360066384
1504,0.1359281093
1503,0.1359500885
1502,0.1358753741
1501,0.1357881278
1500,0.135719195
1499,0.1356800348
1498,0.1356394589
1497,0.1355773807
1496,0.1354949772
1495,0.1354343891
1494,0.1354153454
1493,0.1353362501
1492,0.1352923065
1491,0.1352028251
1490,0.1351989657
1489,0.1351405531
1488,0.1351214051
1487,0.1350921094
1486,0.1350456178
1485,0.13490282
1484,0.1349658668
1483,0.1349292397
1482,0.134867534
1481,0.1347981244
1480,0.1347508132
1479,0.1347448379
1478,0.1346616149
1477,0.1346750855
1476,0.1345991045
1475,0.134546414
1474,0.1344817728
1473,0.1345459521
1472,0.1344805062
1471,0.1343857795
1470,0.1343768984
1469,0.1343355626
1468,0.1343249083
1467,0.1342960596
1466,0.1342436522
1465,0.1342074126
1464,0.1341588944
1463,0.1341485977
1462,0.1341768056
1461,0.1340712607
1460,0.1340570599
1459,0.1340616345
1458,0.1339640468
1457,0.1339652836
1456,0.1339378655
1455,0.1339514703
1454,0.1338895559
1453,0.1338013709
1452,0.1337757409
1451,0.1337836534
1450,0.133810252
1449,0.1337706596
1448,0.1337541044
1447,0.1336604208
1446,0.1336687058
1445,0.1336509585
1444,0.1336396784
1443,0.1335756332
1442,0.1335742921
1441,0.1335381418
1440,0.1334800869
1439,0.1334583014
1438,0.1334648877
1437,0.1334565133
1436,0.1334316581
1435,0.1333635896
1434,0.133273229
1433,0.133367613
1432,0.1333192885
1431,0.1333187371
1430,0.1332131177
1429,0.1332159191
1428,0.1332449466
1427,0.1331892312
1426,0.1331630498
1425,0.1330929548
1424,0.1330978125
1423,0.1330711246
1422,0.1330359131
1421,0.1329910159
1420,0.1329840124
1419,0.1329840124
1418,0.1329721361
1417,0.1329015493
1416,0.1328790784
1415,0.1329255104
1414,0.1328005642
1413,0.1328653991
1412,0.1327981055
1411,0.1326856166
1410,0.1326987892
1409,0.1327029318
1408,0.132714808
1407,0.1326614767
1406,0.1327341795
1405,0.1326945424
1404,0.132698372
1403,0.1325844377
1402,0.13252455
1401,0.1326748282
1400,0.132690385
1399,0.1325910091
1398,0.1324175
1397,0.1324320138
1396,0.1325655729
1395,0.1325700283
1394,0.1324365437
1393,0.1323984414
1392,0.132464841
1391,0.1323624551
1390,0.1322201788
1389,0.1323007345
1388,0.1322675645
1387,0.132250011
1386,0.1322304606
1385,0.1321554631
1384,0.1321050674
1383,0.1323100626
1382,0.132345736
1381,0.1323521286
1380,0.1322351992
1379,0.1321373433
1378,0.1321872175
1377,0.1321737766
1376,0.132173419
1375,0.1320744753
1374,0.1320557743
1373,0.1318843365
1372,0.1319289505
1371,0.1319569051
1370,0.1318863779
1369,0.1318445057
1368,0.1318355203
1367,0.1318672001
1366,0.1317203045
1365,0.1317270845
1364,0.1317720562
1363,0.1316184849
1362,0.1318268627
1361,0.1318561882
1360,0.1317252964
1359,0.1316808015
1358,0.1316660494
1357,0.1316058636
1356,0.1315950304
1355,0.1315881312
1354,0.1316336989
1353,0.1316387802
1352,0.1315812618
1351,0.1315888017
1350,0.1316189319
1349,0.1315534711
1348,0.1315534711
1347,0.1315509081
1346,0.1315241754
1345,0.1315439343
1344,0.1315278113
1343,0.1314730197
1342,0.1315317452
1341,0.131525889
1340,0.1315482855
1339,0.1315070391
1338,0.1315570027
1337,0.131534189
1336,0.1315751672
1335,0.1315640509
1334,0.1315481365
1333,0.1315413117
1332,0.1315574348
1331,0.1315532178
1330,0.131629318
1329,0.1316021532
1328,0.1315976232
1327,0.1316139549
1326,0.1315976679
1325,0.1316279024
1324,0.1316393316
1323,0.1316625029
1322,0.1316353381
1321,0.1317182481
1320,0.1317248344
1319,0.131768316
1318,0.1317488104
1317,0.1317540109
1316,0.131791234
1315,0.1317937225
1314,0.1318326145
1313,0.1318913251
1312,0.1318930089
1311,0.131959334
1310,0.1319351345
1309,0.1319927573
1308,0.1319497973
1307,0.1320172548
1306,0.1320783943
1305,0.1321332455
1304,0.1321585476
1303,0.1322210133
1302,0.1322394013
1301,0.1323036849
1300,0.1322967261
1299,0.1323695034
1298,0.1324175745
1297,0.1324393749
1296,0.132453531
1295,0.1326172799
1294,0.1325685531
1293,0.1326234937
1292,0.1327179074
1291,0.1327614039
1290,0.1328820735
1289,0.1329419017
1288,0.1328947991
1287,0.1329717487
1286,0.1330465674
1285,0.1331167668
1284,0.1332668662
1283,0.1333120465
1282,0.1333595514
1281,0.1334314793
1280,0.1335065365
1279,0.133579582
1278,0.1336709559
1277,0.1337576658
1276,0.1337601691
1275,0.1338763833
1274,0.1340471506
1273,0.134091109
1272,0.1341968328
1271,0.1342910826
1270,0.1343506575
1269,0.1344996244
1268,0.1345648021
1267,0.1347065717
1266,0.1347840726
1265,0.1348825842
1264,0.1350371093
1263,0.1351407021
1262,0.1352258325
1261,0.1353502125
1260,0.1354842186
1259,0.1355939955
1258,0.1357366741
1257,0.1358382404
1256,0.1359914392
1255,0.1361324042
1254,0.1362390965
1253,0.1363781989
1252,0.1365331858
1251,0.1366987973
1250,0.1367906928
1249,0.136945188
1248,0.1370945871
1247,0.1372318715
1246,0.1373274922
1245,0.1375366896
1244,0.1376767606
1243,0.1378218085
1242,0.1380472332
1241,0.1381564289
1240,0.1382973045
1239,0.1384815723
1238,0.1386394948
1237,0.1388583332
1236,0.1390086114
1235,0.1391194612
1234,0.1393035799
1233,0.1395481676
1232,0.1396884769
1231,0.1398846507
1230,0.1400681734
1229,0.1402531564
1228,0.1404358894
1227,0.140663147
1226,0.140838325
1225,0.1409977525
1224,0.1412332207
1223,0.1414434016
1222,0.1416369677
1221,0.1418052316
1220,0.1420543194
1219,0.1422654986
1218,0.1425046176
1217,0.1427543163
1216,0.1429586858
1215,0.1431733072
1214,0.1434525102
1213,0.1436579227
1212,0.1438817978
1211,0.1441711187
1210,0.1444109827
1209,0.1446278393
1208,0.1449526399
1207,0.1451958716
1206,0.1454378664
1205,0.1457194239
1204,0.1460027248
1203,0.1462219656
1202,0.1465101242
1201,0.1468132883
1200,0.1470139921
1199,0.14720653
1198,0.1474515796
1197,0.1477205902
1196,0.1480268836
1195,0.1483568996
1194,0.1486617476
1193,0.1489448249
1192,0.1492428333
1191,0.1495095491
1190,0.1498065591
1189,0.1501314491
1188,0.150489524
1187,0.1507905722
1186,0.1510627866
1185,0.1513806581
1184,0.1517474204
1183,0.1520459205
1182,0.1523757279
1181,0.1526371986
1180,0.1529933065
1179,0.1533257514
1178,0.153627336
1177,0.1539630592
1176,0.1543074846
1175,0.154598102
1174,0.1549443156
1173,0.1552516073
1172,0.1556090117
1171,0.1558742523
1170,0.1562241614
1169,0.1565841436
1168,0.1568550915
1167,0.1572253704
1166,0.1575365514
1165,0.1578403711
1164,0.1582094133
1163,0.1585115641
1162,0.1588321328
1161,0.159139365
1160,0.1594936252
1159,0.1598467231
1158,0.1601843834
1157,0.1605261266
1156,0.1608154923
1155,0.1611382663
1154,0.161515981
1153,0.1618896276
1152,0.162221089
1151,0.1625921428
1150,0.162951231
1149,0.163274616
1148,0.1636800021
1147,0.1641409993
1146,0.1645062417
1145,0.1649044156
1144,0.1653115898
1143,0.1657539904
1142,0.1661746502
1141,0.1666084379
1140,0.1669971347
1139,0.1675086319
1138,0.1679796875
1137,0.1684108526
1136,0.1688767076
1135,0.1694401652
1134,0.1699144393
1133,0.1704229861
1132,0.1709536612
1131,0.1714420617
1130,0.1719442904
1129,0.172486037
1128,0.1730529368
1127,0.1735838205
1126,0.1741322875
1125,0.174677074
1124,0.1752139777
1123,0.1758221239
1122,0.1763980687
1121,0.1769518554
1120,0.1775269806
1119,0.1781038642
1118,0.1787003726
1117,0.1792605519
1116,0.1798144281
1115,0.1803750992
1114,0.1809208691
1113,0.1815270483
1112,0.1820710301
1111,0.1826294214
1110,0.1831773669
1109,0.1836882979
1108,0.1842373461
1107,0.1847850978
1106,0.1853081584
1105,0.1857551336
1104,0.1862252653
1103,0.1867402792
1102,0.1871940345
1101,0.187691465
1100,0.1880758703
1099,0.1885423362
1098,0.1888945848
1097,0.1893169433
1096,0.1896253079
1095,0.1900205463
1094,0.1903104037
1093,0.1906405687
1092,0.1909348965
1091,0.1911887825
1090,0.1914688498
1089,0.1917464733
1088,0.1920126379
1087,0.1922242343
1086,0.1924341619
1085,0.1925637573
1084,0.1928114891
1083,0.1929764003
1082,0.1932108551
1081,0.1933627874
1080,0.1935049891
1079,0.1936498284
1078,0.1938398927
1077,0.1939775199
1076,0.1941789538
1075,0.1942730397
1074,0.1944354177
1073,0.1946902722
1072,0.194868952
1071,0.1950783432
1070,0.1953083128
1069,0.1954867244
1068,0.1956852376
1067,0.1958957464
1066,0.1961774826
1065,0.196428135
1064,0.1966554075
1063,0.1969839931
1062,0.1972589791
1061,0.1975272
1060,0.1978210807
1059,0.198130995
1058,0.1984261125
1057,0.1988408566
1056,0.1992049217
1055,0.1995396316
1054,0.1998927593
1053,0.2002684623
1052,0.2006221116
1051,0.2010436058
1050,0.2014905661
1049,0.2017831653
1048,0.2021638602
1047,0.2025884092
1046,0.2028988451
1045,0.2033002824
1044,0.2036886662
1043,0.2040586025
1042,0.2043845952
1041,0.2047744542
1040,0.2050678581
1039,0.2053184807
1038,0.2056636661
1037,0.2059904933
1036,0.2062357217
1035,0.2064955533
1034,0.2067044526
1033,0.2069114894
1032,0.2071122825
1031,0.2072919458
1030,0.2074048519
1029,0.2075083256
1028,0.2076332718
1027,0.2076873928
1026,0.2078000307
1025,0.2078994513
1024,0.207850948
1023,0.2078174502
1022,0.2078441381
1021,0.2078110129
1020,0.2077728361
1019,0.2076417059
1018,0.2075333744
1017,0.2074457556
1016,0.2073429674
1015,0.2072151452
1014,0.2070294768
1013,0.2068046182
1012,0.2067069113
1011,0.2065793872
1010,0.2063226402
1009,0.206119746
1008,0.2059024423
1007,0.205716908
1006,0.2054535598
1005,0.2052548975
1004,0.205013901
1003,0.204721123
1002,0.2044747025
1001,0.2042125612
1000,0.2039318681
999,0.2036824226
998,0.2033658475
997,0.2030807734
996,0.2027543187
995,0.2024545968
994,0.2021214664
993,0.2017689198
992,0.201383844
991,0.2010660172
990,0.200717181
989,0.2003165036
988,0.2000228018
987,0.1996188909
986,0.1992541105
985,0.1988737583
984,0.1985132247
983,0.198099941
982,0.1977157742
981,0.1973679215
980,0.1970507056
979,0.1966491044
978,0.1962788254
977,0.1958893687
976,0.1955976188
975,0.1953122467
974,0.1949755996
973,0.1946250647
972,0.1942730397
971,0.1939145774
970,0.1936381906
969,0.1933919936
968,0.1929854453
967,0.1927881241
966,0.1925071776
965,0.1921628565
964,0.1919075996
963,0.1916189641
962,0.1913430244
961,0.1910306513
960,0.1907333285
959,0.1904895902
958,0.190196842
957,0.18987827
956,0.1896583587
955,0.1893082559
954,0.1889307052
953,0.1887203008
952,0.1883760989
951,0.1880035102
950,0.1877810359
949,0.1873412579
948,0.1869896501
947,0.1866692156
946,0.1864345074
945,0.186039269
944,0.185621798
943,0.1851766557
942,0.1847996265
941,0.1844267696
940,0.184206754
939,0.1837565005
938,0.1833610088
937,0.1829911917
936,0.1826343983
935,0.1821774542
934,0.1818356514
933,0.1814185083
932,0.1809648126
931,0.1807314306
930,0.180294916
929,0.1799385548
928,0.1795840561
927,0.1791671216
926,0.1787190139
925,0.1783407927
924,0.1779528409
923,0.1775116771
922,0.1771132201
921,0.1766719669
920,0.1762715727
919,0.1759840548
918,0.1756741107
917,0.1750061661
916,0.1746793091
915,0.1743349135
914,0.1740531325
913,0.1735682189
912,0.1732285172
911,0.1727069765
910,0.1725069433
909,0.1718775332
908,0.1714778692
907,0.1713555306
906,0.1708368361
905,0.1704210341
904,0.1702192575
903,0.1699616462
902,0.1694389433
901,0.1690106988
900,0.1686586589
899,0.1604046524
898,0.1687736809
897,0.1652855426
896,0.1740981936
895,0.1692021191
894,0.1682783514
893,0.160153389
892,0.1637744308
891,0.1628422588
890,0.1675922424
889,0.1706398129
888,0.1664655805
887,0.1674740314
886,0.171002239
885,0.1657971144
884,0.1657226831
883,0.1723688692
882,0.1675352454
881,0.1662774682
880,0.1626875401
879,0.1633193344
878,0.1651588976
877,0.1707697064
876,0.165205434
875,0.1607890725
874,0.1668362468
873,0.1641024947
872,0.1644136608
871,0.1643526256
870,0.1638782769
869,0.1629689783
868,0.1637325734
867,0.1626084894
866,0.1608355939
865,0.1616615355
864,0.1621834189
863,0.1609615684
862,0.1617335528
861,0.1628324389
860,0.1615839452
859,0.1616548598
858,0.1625380665
857,0.1624007523
856,0.1615140736
855,0.1603156775
854,0.1618558764
853,0.1608210802
852,0.1614052653
851,0.160672769
850,0.1612331867
849,0.1613625884
848,0.1612757444
847,0.1602907032
846,0.1595540941
845,0.1611319631
844,0.1598718464
843,0.1597446948
842,0.1602741182
841,0.1595891267
840,0.1596429497
839,0.1593644023
838,0.1603807211
837,0.1598295569
836,0.1599313021
835,0.1597859859
834,0.1594424993
833,0.160430491
832,0.1601580679
831,0.1598910838
830,0.1606104523
829,0.1601075679
828,0.1608824134
827,0.1601577997
826,0.1609978378
825,0.1608024538
824,0.1606044918
823,0.1610216498
822,0.1612100005
821,0.1608972996
820,0.1613384187
819,0.1617911458
818,0.1615739167
817,0.1620591134
816,0.1622993946
815,0.1622643471
814,0.1623703837
813,0.1621466279
812,0.1626124382
811,0.1631764621
810,0.1635545492
809,0.1636566073
808,0.1640930921
807,0.1640016586
806,0.1640803367
805,0.1642973274
804,0.1646833271
803,0.1646374464
802,0.1646050364
801,0.1656904966
800,0.1654406935
799,0.1658221036
798,0.1660644114
797,0.1668117344
796,0.1667337865
795,0.1670611352
794,0.1668167114
793,0.1671180278
792,0.1678082645
791,0.1680903733
790,0.1684311926
789,0.1683188528
788,0.1686458439
787,0.1690442413
786,0.1690215468
785,0.1693074703
784,0.1696853936
783,0.1696246415
782,0.1699048728
781,0.1703200638
780,0.1706185639
779,0.1705651283
778,0.17114456
777,0.171397239
776,0.1713921726
775,0.17170237
774,0.1722945422
773,0.1725636721
772,0.1731124669
771,0.1734824479
770,0.1738008708
769,0.1745119542
768,0.1744888574
767,0.1757107675
766,0.1753989756
765,0.1758691669
764,0.1766448319
763,0.1773733199
762,0.1777068526
761,0.178219974
760,0.1793169528
759,0.1795655787
758,0.1799992025
757,0.1803629398
756,0.1809940189
755,0.1814795136
754,0.1820415109
753,0.1823996753
752,0.182718724
751,0.1834838688
750,0.1836838275
749,0.1845045984
748,0.1848859638
747,0.184923768
746,0.185406059
745,0.1854786575
744,0.185836494
743,0.1861689985
742,0.1866115332
741,0.1867990196
740,0.1871041059
739,0.1871150583
738,0.1869749725
737,0.1872191727
736,0.1872570217
735,0.1873099357
734,0.1872802526
733,0.1872062683
732,0.1875635087
731,0.1876923293
730,0.1875579208
729,0.1877688318
728,0.1878669262
727,0.1878943741
726,0.1879262626
725,0.1878982782
724,0.1883300543
723,0.1881678402
722,0.188225463
721,0.1886261404
720,0.1887393743
719,0.1887995452
718,0.1890211403
717,0.1890658289
716,0.1892598569
715,0.1896062046
714,0.1897596121
713,0.1900236309
712,0.1902191043
711,0.1903799027
710,0.1905210465
709,0.1908278763
708,0.190812692
707,0.1911624521
706,0.1912412941
705,0.1912789345
704,0.1912820637
703,0.1912422925
702,0.1916126013
701,0.1915816963
700,0.1913838536
699,0.1913902462
698,0.1915118098
697,0.1913063973
696,0.1912456304
695,0.1912338138
694,0.1909454614
693,0.1908528209
692,0.1908838004
691,0.1906897575
690,0.1904221922
689,0.1902786642
688,0.1900669783
687,0.189988628
686,0.18983154
685,0.1895892173
684,0.1894405633
683,0.189144522
682,0.1889482588
681,0.1889494956
680,0.1886909306
679,0.1887207776
678,0.1882940978
677,0.1882390827
676,0.1882050931
675,0.187959373
674,0.1877143085
673,0.1874976456
672,0.1873474717
671,0.1870536804
670,0.1867467314
669,0.1867929697
668,0.1865560859
667,0.1862615645
666,0.1860877723
665,0.185934037
664,0.1858772039
663,0.1856769621
662,0.1855207533
661,0.1854195446
660,0.1852148473
659,0.1850528866
658,0.1850291491
657,0.1848936528
656,0.1847624332
655,0.1846710145
654,0.1845443398
653,0.184489876
652,0.1841606647
651,0.1841463447
650,0.1841829419
649,0.183939606
648,0.1837665439
647,0.1836920977
646,0.1835453212
645,0.1834756434
644,0.1833487749
643,0.1833152026
642,0.1830365211
641,0.182673648
640,0.1826085746
639,0.1824085116
638,0.182469815
637,0.1822445244
636,0.1821430027
635,0.1818831414
634,0.1819051802
633,0.1816716045
632,0.1815013736
631,0.1814699173
630,0.1814229041
629,0.181342721
628,0.1811462641
627,0.1810999066
626,0.1810918152
625,0.1809245646
624,0.1808339059
623,0.1808273196
622,0.1807150692
621,0.180639714
620,0.1806530207
619,0.1804194897
618,0.1805012375
617,0.1804427952
616,0.1803055853
615,0.1805500239
614,0.1804566383
613,0.1804439723
612,0.1804364324
611,0.1806459576
610,0.1807901114
609,0.1809090972
608,0.1810761392
607,0.1810604334
606,0.181313321
605,0.1814146489
604,0.1817156523
603,0.1819000989
602,0.1820565909
601,0.1824131161
600,0.1825317144
599,0.1829608977
598,0.1833245307
597,0.1834235191
596,0.1837427914
595,0.1838870198
594,0.184272036
593,0.1845359504
592,0.1847845465
591,0.1848379374
590,0.1850960553
589,0.1851485819
588,0.1853363216
587,0.185513854
586,0.1856681556
585,0.1857414842
584,0.1857336909
583,0.1858466268
582,0.1858537346
581,0.1858714372
580,0.1860345751
579,0.1860720366
578,0.1861688346
577,0.1862189174
576,0.1863964051
575,0.1866345257
574,0.1869759262
573,0.1872165799
572,0.1874854118
571,0.1877297908
570,0.1882659495
569,0.1885505617
568,0.1892134696
567,0.1895579398
566,0.1902384758
565,0.1905997396
564,0.1911913604
563,0.1915935278
562,0.1921676546
561,0.1924829483
560,0.1930899322
559,0.1933214962
558,0.1940144598
557,0.1942102015
556,0.1942571998
555,0.1947045773
554,0.1950273514
553,0.1948551685
552,0.194938004
551,0.1946570426
550,0.1945911944
549,0.1946050525
548,0.1943804175
547,0.194152683
546,0.1937235445
545,0.1939653009
544,0.1937508434
543,0.1935953349
542,0.1936619133
541,0.1935641617
540,0.1934548765
539,0.1937337667
538,0.1939910352
537,0.1941779405
536,0.1942801625
535,0.1948282868
534,0.195154801
533,0.1955742687
532,0.1958281249
531,0.1963593364
530,0.1966901869
529,0.197116673
528,0.1975946277
527,0.197925806
526,0.1983868629
525,0.1987620145
524,0.1993663907
523,0.1991767138
522,0.199513033
521,0.1996950954
520,0.1998222917
519,0.1999403387
518,0.1997938752
517,0.199754715
516,0.2001015395
515,0.1999947727
514,0.1999206096
513,0.1999188066
512,0.2001577616
511,0.2003607601
510,0.2004303187
509,0.2008802742
508,0.2010292411
507,0.2011665851
506,0.2014754564
505,0.2018931657
504,0.2023219615
503,0.2028717995
502,0.2035025507
501,0.2039056122
500,0.2044888437
499,0.2051587403
498,0.2058441788
497,0.2062797546
496,0.2068086267
495,0.2073566169
494,0.2077731788
493,0.2080959827
492,0.2083008885
491,0.2083377391
490,0.2084407508
489,0.2079753727
488,0.2079366893
487,0.2075958252
486,0.2071490288
485,0.2065342367
484,0.2065896392
483,0.2062954903
482,0.2060692757
481,0.205784142
480,0.2057727873
479,0.2059203237
478,0.2059349567
477,0.2062780112
476,0.2063794136
475,0.206964314
474,0.2072722465
473,0.2080091387
472,0.2084560692
471,0.2093683928
470,0.2098609954
469,0.2100902945
468,0.2108737081
467,0.2109850347
466,0.2113769054
465,0.211404711
464,0.2112246454
463,0.2110223174
462,0.210813269
461,0.2103618532
460,0.2098585665
459,0.2094902843
458,0.2093919665
457,0.2091594785
456,0.2088562995
455,0.2087611705
454,0.2086056024
453,0.2089583874
452,0.209193334
451,0.2093796283
450,0.2096905559
449,0.2100754231
448,0.2103985697
447,0.2110983133
446,0.2113969922
445,0.2118162215
444,0.2123064995
443,0.2127375156
442,0.2131368965
441,0.2136915028
440,0.2139281183
439,0.2140880674
438,0.2142039537
437,0.2144472152
436,0.2148276269
435,0.2149357945
434,0.21502918
433,0.2155178338
432,0.2155602723
431,0.2158653587
430,0.2162331641
429,0.2165828347
428,0.2174814492
427,0.2178516686
426,0.2179765105
425,0.2186792791
424,0.2191691399
423,0.219766885
422,0.2203057408
421,0.2205079645
420,0.2208258957
419,0.2212187797
418,0.2211645395
417,0.2212458402
416,0.2213218361
415,0.2215940952
414,0.2215560228
413,0.2217952758
412,0.2219601423
411,0.2222652584
410,0.2225617468
409,0.2232432961
408,0.2238543034
407,0.2242417336
406,0.2248539329
405,0.2254759669
404,0.2263312489
403,0.2271275967
402,0.2277927846
401,0.2284796536
400,0.2290282398
399,0.2297671288
398,0.2297806591
397,0.2304538786
396,0.2306097299
395,0.2310459018
394,0.2309051752
393,0.2314819843
392,0.2318525016
391,0.2318464518
390,0.2324014753
389,0.2330784649
388,0.2331563979
387,0.2339001596
386,0.2344298065
385,0.2347840369
384,0.2354056835
383,0.2363772541
382,0.2371151149
381,0.2381488383
380,0.2386621982
379,0.2395846844
378,0.2404157668
377,0.2410401702
376,0.2419910878
375,0.2425516397
374,0.2431904972
373,0.2443176955
372,0.2451307327
371,0.2461663485
370,0.2465484142
369,0.2475612462
368,0.2476499677
367,0.2479955852
366,0.2491703629
365,0.2497650087
364,0.2495875508
363,0.2503186166
362,0.2507662773
361,0.2518500686
360,0.2525029778
359,0.2533775568
358,0.2545971572
357,0.2554854751
356,0.2572586536
355,0.2582190335
354,0.2588862181
353,0.2600512505
352,0.2612886131
351,0.2622364759
350,0.2631821036
349,0.2615845799
348,0.263032794
347,0.2629707158
346,0.2632374763
345,0.2644561827
344,0.2661581039
343,0.2666924596
342,0.2676202059
341,0.2687957287
340,0.2696290612
339,0.2709971666
338,0.2712646425
337,0.2732491493
336,0.2741851509
335,0.2767830193
334,0.2773355246
333,0.277617991
332,0.278976351
331,0.2796421051
330,0.2813607752
329,0.2819205523
328,0.2831272185
327,0.2845981419
326,0.2856993675
325,0.287784487
324,0.2886509299
323,0.2907773852
322,0.2920005023
321,0.2946572006
320,0.2957369089
319,0.2977390885
318,0.2990401387
317,0.3018814921
316,0.302505672
315,0.3047581911
314,0.3067003787
313,0.3086699247
312,0.3102988005
311,0.312402457
310,0.3148108423
309,0.3161416948
308,0.318375051
307,0.3209617138
306,0.3228572905
305,0.3257665634
304,0.3284189105
303,0.3304112852
302,0.3328549862
301,0.3348753154
300,0.3367974162
299,0.3397935331
298,0.3421461284
297,0.3443181217
296,0.3471073508
295,0.349332124
294,0.3521847129
293,0.3548004925
292,0.3578109145
291,0.3604110479
290,0.363202244
289,0.365545094
288,0.3682555854
287,0.3709476888
286,0.3742090166
285,0.3762911558
284,0.3783615828
283,0.3808669746
282,0.3833586276
281,0.3847141266
280,0.3871121407
279,0.3889504671
278,0.3905209005
277,0.3930249214
276,0.3929446638
275,0.3948708773
274,0.3957003951
273,0.3964663446
272,0.397031486
271,0.3974409103
270,0.3975016773
269,0.3971281648
268,0.3972804248
267,0.397067219
266,0.3962883949
265,0.395808965
264,0.3953454196
263,0.3941277862
262,0.3931604922
261,0.3919475377
260,0.3902671635
259,0.3889527619
258,0.3870776296
257,0.3859480917
256,0.3846007586
255,0.3829185665
254,0.3805823326
253,0.3778331876
252,0.3758993149
251,0.3729549646
250,0.3702315092
249,0.3676991165
248,0.3640384078
247,0.3609651923
246,0.3568755388
245,0.3532375097
244,0.3492760658
243,0.3451575935
242,0.3416032791
241,0.3379345536
240,0.3337562382
239,0.3309440911
238,0.3270559907
237,0.3241113126
236,0.3207815886
235,0.3179232776
234,0.3149817586
233,0.3128431141
232,0.3102670908
231,0.3088963032
230,0.3070899248
229,0.3055560291
228,0.3036996126
227,0.3034622967
226,0.3030462861
225,0.304420203
224,0.3062459826
223,0.3102028966
222,0.315196842
221,0.3222696483
220,0.3329091668
219,0.3445756733
218,0.3608494997
217,0.3790771663
216,0.3991418481
215,0.4216394424
214,0.4449456334
213,0.46905002
212,0.4914226234
211,0.513430655
210,0.5340799093
209,0.5503374338
208,0.5638673306
207,0.5735057592
206,0.5802846551
205,0.5823356509
204,0.5822235942
203,0.5777312517
202,0.5715969801
201,0.5634041429
200,0.5533777475
