Dodecane_KIT_Temp_98
Wavelength (nm),Abs
2655,0.08407426625
2654,0.08205983043
2653,0.07981833071
2652,0.08408328146
2651,0.08430937678
2650,0.08464960754
2649,0.08493693173
2648,0.08438258618
2647,0.08333666623
2646,0.08148965985
2645,0.08408067375
2644,0.08472834527
2643,0.08321685344
2642,0.08217620105
2641,0.08456562459
2640,0.08452168852
2639,0.08483146131
2638,0.08453757316
2637,0.08467505127
2636,0.08380700648
2635,0.08428017795
2634,0.08078860492
2633,0.08202915639
2632,0.08133319765
2631,0.07679830492
2630,0.07882141322
2629,0.08533599973
2628,0.08317766339
2627,0.08056440204
2626,0.08407583833
2625,0.08390942961
2624,0.08416987211
2623,0.08400597423
2622,0.08223998547
2621,0.08134549856
2620,0.08387789875
2619,0.08363828063
2618,0.07860135287
2617,0.07879127562
2616,0.08277963102
2615,0.08357674628
2614,0.08378490061
2613,0.08389937878
2612,0.08335799724
2611,0.08367202431
2610,0.08562289923
2609,0.08281414956
2608,0.07952989638
2607,0.07727317512
2606,0.07611702383
2605,0.07757940143
2604,0.08370874822
2603,0.0834749341
2602,0.08497735113
2601,0.08517660201
2600,0.08485861868
2599,0.08372720331
2598,0.08335579932
2597,0.0802167356
2596,0.07737307996
2595,0.07803411782
2594,0.0830719322
2593,0.08459245414
2592,0.08457930386
2591,0.08379548043
2590,0.0835326612
2589,0.08428947628
2588,0.08404545486
2587,0.08446530998
2586,0.08331182599
2585,0.0823982358
2584,0.0826632902
2583,0.0847350508
2582,0.0854916051
2581,0.08654557914
2580,0.08573751152
2579,0.08392713964
2578,0.08272557706
2577,0.08028315753
2576,0.08379366249
2575,0.08255649358
2574,0.08107245713
2573,0.08449435979
2572,0.08468143642
2571,0.08245617151
2570,0.08320775628
2569,0.08484606445
2568,0.08572780341
2567,0.08465906978
2566,0.08324732631
2565,0.08380553126
2564,0.08464567363
2563,0.08523506671
2562,0.08386914432
2561,0.08463878185
2560,0.08528684825
2559,0.08477425575
2558,0.08510010689
2557,0.08469107002
2556,0.08475915343
2555,0.08419953287
2554,0.08419271559
2553,0.08546055853
2552,0.08547373861
2551,0.08598425984
2550,0.08431500196
2549,0.08360213041
2548,0.08534828573
2547,0.08517433703
2546,0.08421191573
2545,0.08511676639
2544,0.08559969068
2543,0.08600000292
2542,0.08558037132
2541,0.08468373865
2540,0.08474263549
2539,0.08454228938
2538,0.08494505286
2537,0.08536785096
2536,0.08543046564
2535,0.08484905213
2534,0.08512417227
2533,0.08508099616
2532,0.0853812471
2531,0.08557258546
2530,0.08518762887
2529,0.08486693352
2528,0.08465898037
2527,0.08469952643
2526,0.08454860747
2525,0.08459770679
2524,0.08468087018
2523,0.08511352539
2522,0.08484058827
2521,0.08509324491
2520,0.08469647914
2519,0.08462966233
2518,0.08493932337
2517,0.08496982604
2516,0.08492515981
2515,0.08511308581
2514,0.08525688946
2513,0.08495292068
2512,0.08501891047
2511,0.08509488404
2510,0.08558373898
2509,0.08496765792
2508,0.08522693813
2507,0.08534444124
2506,0.08549690247
2505,0.0852964893
2504,0.08523638546
2503,0.08538943529
2502,0.08562989533
2501,0.0855621472
2500,0.08547452092
2499,0.08555691689
2498,0.08545514196
2497,0.08559919149
2496,0.08558160067
2495,0.08585014194
2494,0.08544587344
2493,0.0855704695
2492,0.08569437265
2491,0.08568318188
2490,0.08554049581
2489,0.08549772203
2488,0.08602483571
2487,0.08585856855
2486,0.08577378094
2485,0.08581963927
2484,0.0861376971
2483,0.08605967462
2482,0.08597428352
2481,0.08595200628
2480,0.08591187745
2479,0.08626154065
2478,0.08614239842
2477,0.08628023416
2476,0.08613308519
2475,0.08612393588
2474,0.0861106813
2473,0.0859644413
2472,0.08632257581
2471,0.08670019358
2470,0.08642657846
2469,0.08645188063
2468,0.08674830198
2467,0.08659780771
2466,0.08655635267
2465,0.08678326756
2464,0.08658393472
2463,0.08664959669
2462,0.08664144576
2461,0.08660776168
2460,0.08701681346
2459,0.08692149073
2458,0.08673970401
2457,0.08707140386
2456,0.08693063259
2455,0.08694922924
2454,0.08745955676
2453,0.08721169084
2452,0.08728130907
2451,0.08745806664
2450,0.08723019809
2449,0.08715505153
2448,0.08734007925
2447,0.087091811
2446,0.08748216182
2445,0.08758285642
2444,0.08758048713
2443,0.08751398325
2442,0.08777735382
2441,0.08768221736
2440,0.08773556352
2439,0.08796363324
2438,0.08780482411
2437,0.08776693046
2436,0.08786646277
2435,0.08801042289
2434,0.08800718933
2433,0.08822391927
2432,0.08828186989
2431,0.08820986748
2430,0.08853923529
2429,0.08835683018
2428,0.08853317052
2427,0.08866659552
2426,0.08854196221
2425,0.08870653808
2424,0.08867634088
2423,0.08847229928
2422,0.08868869394
2421,0.08884324878
2420,0.08894213289
2419,0.08874705434
2418,0.08898995072
2417,0.08900520205
2416,0.08904323727
2415,0.08919801563
2414,0.08922611922
2413,0.08921400458
2412,0.08935403079
2411,0.08939708769
2410,0.08946314454
2409,0.08952313662
2408,0.0895081535
2407,0.08961053193
2406,0.08971853554
2405,0.08982516825
2404,0.0896987766
2403,0.08992338926
2402,0.0899990797
2401,0.08991577476
2400,0.09002296627
2399,0.09008982033
2398,0.0900214389
2397,0.09025788307
2396,0.09029506892
2395,0.09039721638
2394,0.09043847024
2393,0.09064521641
2392,0.0905932039
2391,0.09053500742
2390,0.09077613056
2389,0.09088758379
2388,0.09078053385
2387,0.09100101888
2386,0.09104165435
2385,0.09098036587
2384,0.09113621712
2383,0.09148014337
2382,0.09123802185
2381,0.09132800251
2380,0.09174664319
2379,0.09144876897
2378,0.09146292508
2377,0.09181340784
2376,0.09175076336
2375,0.09173202515
2374,0.09197247773
2373,0.09213230014
2372,0.09194077551
2371,0.09200706333
2370,0.09232654423
2369,0.09216824174
2368,0.09222557396
2367,0.09248800576
2366,0.09250222892
2365,0.09241329134
2364,0.09274188429
2363,0.09287115186
2362,0.09285711497
2361,0.09283044189
2360,0.09312833846
2359,0.09315733612
2358,0.09316191822
2357,0.09332231432
2356,0.09356428683
2355,0.09331862628
2354,0.09349904954
2353,0.09386985004
2352,0.09374911338
2351,0.09368433058
2350,0.09402709454
2349,0.09419044852
2348,0.09398367256
2347,0.09422472864
2346,0.0944423303
2345,0.0943813324
2344,0.09447962046
2343,0.09477768093
2342,0.0948824361
2341,0.09468802065
2340,0.0946874097
2339,0.09503912181
2338,0.09510575235
2337,0.09497549385
2336,0.09526735544
2335,0.0955311507
2334,0.09530451894
2333,0.09546715766
2332,0.09567322582
2331,0.09582412243
2330,0.09570890665
2329,0.09602050483
2328,0.09609145671
2327,0.09614771605
2326,0.09620434791
2325,0.09625484049
2324,0.09659331292
2323,0.09667282552
2322,0.09640742838
2321,0.09696152061
2320,0.09701611847
2319,0.09673223644
2318,0.0970684588
2317,0.09739978611
2316,0.09718163311
2315,0.09736389667
2314,0.09746399522
2313,0.09781160951
2312,0.09770922363
2311,0.09771276265
2310,0.09797476977
2309,0.09829903394
2308,0.09808205068
2307,0.09828819335
2306,0.09863390028
2305,0.09855747223
2304,0.09856698662
2303,0.09872224182
2302,0.09901227057
2301,0.09902518243
2300,0.09892585874
2299,0.09899815917
2298,0.09952881187
2297,0.09936968982
2296,0.09945583344
2295,0.09947100282
2294,0.09994506836
2293,0.09968128055
2292,0.09966555238
2291,0.09998231381
2290,0.1002962142
2289,0.1006242335
2288,0.1002176255
2287,0.1003980339
2286,0.1005781591
2285,0.1008627042
2284,0.1007986739
2283,0.1009735093
2282,0.101187788
2281,0.1014716923
2280,0.1013296992
2279,0.1011515856
2278,0.1019038633
2277,0.1015830487
2276,0.1018378437
2275,0.1018032208
2274,0.1019489989
2273,0.1026468202
2272,0.1025522649
2271,0.1024205759
2270,0.1026024595
2269,0.102722466
2268,0.1031339541
2267,0.1033412591
2266,0.1031083167
2265,0.1036572978
2264,0.103797026
2263,0.1033142656
2262,0.1038122475
2261,0.1039732695
2260,0.1042015702
2259,0.1044770777
2258,0.1045422405
2257,0.104712531
2256,0.1047759503
2255,0.1052654833
2254,0.1054187343
2253,0.1053594053
2252,0.1055839136
2251,0.1061141863
2250,0.1058211923
2249,0.1059179083
2248,0.1064811349
2247,0.1067572311
2246,0.106793575
2245,0.1070115715
2244,0.1069738865
2243,0.1072740853
2242,0.1075852737
2241,0.1075386852
2240,0.1076413244
2239,0.1078568995
2238,0.1084147394
2237,0.1083686873
2236,0.1084402874
2235,0.1087340564
2234,0.1090194434
2233,0.1091475263
2232,0.1092316061
2231,0.1093685403
2230,0.1097812131
2229,0.1096258536
2228,0.1101344302
2227,0.1102260426
2226,0.1103771105
2225,0.1106241345
2224,0.1107663512
2223,0.1112052351
2222,0.1109269336
2221,0.1112373397
2220,0.1114506274
2219,0.1118680909
2218,0.1119697168
2217,0.1119022891
2216,0.112101391
2215,0.1123964041
2214,0.1127603129
2213,0.113146022
2212,0.1130050346
2211,0.1132149249
2210,0.1133357137
2209,0.1136580035
2208,0.1139703989
2207,0.1140007898
2206,0.1140109897
2205,0.1144639105
2204,0.1148679033
2203,0.1151165441
2202,0.1152427942
2201,0.1156508252
2200,0.1153610498
2199,0.1156343371
2198,0.1161063015
2197,0.1163727194
2196,0.1164713427
2195,0.1166684479
2194,0.1169520468
2193,0.1173948199
2192,0.117584914
2191,0.1177163646
2190,0.1179956272
2189,0.1180591136
2188,0.1182922274
2187,0.1186108664
2186,0.1188788563
2185,0.1190210804
2184,0.1191722453
2183,0.119230561
2182,0.1196580306
2181,0.1197492182
2180,0.1201676428
2179,0.1202840731
2178,0.1203556135
2177,0.1207038313
2176,0.1208014265
2175,0.1211667731
2174,0.1213521212
2173,0.1217087135
2172,0.1217345819
2171,0.1221174449
2170,0.1223047823
2169,0.1226682663
2168,0.1228219122
2167,0.1229846403
2166,0.1231584996
2165,0.1234996915
2164,0.1237325743
2163,0.1239675805
2162,0.1243868545
2161,0.1244970709
2160,0.1247890368
2159,0.1247952506
2158,0.125200063
2157,0.1255663931
2156,0.1257588863
2155,0.1260566562
2154,0.1260863841
2153,0.1262704879
2152,0.1266538352
2151,0.1270221323
2150,0.1273472011
2149,0.1276434511
2148,0.1279382855
2147,0.127981618
2146,0.1282445043
2145,0.1285261214
2144,0.1287045181
2143,0.1291006505
2142,0.1294028759
2141,0.1297312379
2140,0.1296744347
2139,0.1300418079
2138,0.1304635555
2137,0.1306146979
2136,0.1309195906
2135,0.1312421113
2134,0.1314557791
2133,0.1317031384
2132,0.1319153756
2131,0.1322063804
2130,0.1325806379
2129,0.1326182932
2128,0.133063212
2127,0.133433491
2126,0.133768931
2125,0.1338482648
2124,0.1342049688
2123,0.1346033365
2122,0.1348816603
2121,0.1351183355
2120,0.1355154514
2119,0.1357836276
2118,0.1358200461
2117,0.1361468583
2116,0.1365111321
2115,0.1368628442
2114,0.1371495426
2113,0.1374654174
2112,0.1378178895
2111,0.1383680403
2110,0.1382725388
2109,0.138593331
2108,0.139022544
2107,0.1393758208
2106,0.1395764351
2105,0.1399807185
2104,0.1402835101
2103,0.1405649334
2102,0.1408164948
2101,0.1414345801
2100,0.1415054649
2099,0.1419239789
2098,0.1420895308
2097,0.1424665153
2096,0.1430402994
2095,0.1432604641
2094,0.1435732841
2093,0.1438484192
2092,0.144270584
2091,0.1446477473
2090,0.1446511745
2089,0.1452035457
2088,0.1453967243
2087,0.1460371763
2086,0.1463808715
2085,0.1465208977
2084,0.1470689774
2083,0.1473513395
2082,0.1477146596
2081,0.1480872482
2080,0.148284629
2079,0.1487212181
2078,0.1491431892
2077,0.1492903531
2076,0.1496876478
2075,0.1502532661
2074,0.1503887177
2073,0.1508944333
2072,0.1512300819
2071,0.1515810341
2070,0.1518394649
2069,0.152505964
2068,0.1526432037
2067,0.1530740559
2066,0.1533644795
2065,0.1538508683
2064,0.1542027146
2063,0.1545239389
2062,0.1550603509
2061,0.1553570181
2060,0.1557297707
2059,0.1561285108
2058,0.1564007998
2057,0.1568036824
2056,0.157331273
2055,0.1576152444
2054,0.1579307765
2053,0.1584172696
2052,0.1588557959
2051,0.1592192501
2050,0.1596283019
2049,0.1599414647
2048,0.1604419202
2047,0.1606824398
2046,0.1611415744
2045,0.1615782827
2044,0.1620187312
2043,0.1623856574
2042,0.1628038883
2041,0.1632583737
2040,0.1635356098
2039,0.1639733464
2038,0.1643955559
2037,0.1647353321
2036,0.1650996059
2035,0.165495947
2034,0.1659480929
2033,0.1663276255
2032,0.1667627394
2031,0.1671873778
2030,0.1674770415
2029,0.1679822356
2028,0.1683444083
2027,0.1688362211
2026,0.1693255901
2025,0.1696102917
2024,0.1700632572
2023,0.1702354997
2022,0.1707576662
2021,0.1713017523
2020,0.1716178209
2019,0.1720315367
2018,0.17245619
2017,0.1728894711
2016,0.1732946783
2015,0.1736703068
2014,0.1741679609
2013,0.1744671166
2012,0.174811542
2011,0.1752926111
2010,0.1756548733
2009,0.1759793907
2008,0.176395148
2007,0.1768587977
2006,0.1771403849
2005,0.1775253117
2004,0.1780394316
2003,0.1783360243
2002,0.1787225306
2001,0.1790576726
2000,0.1795518845
1999,0.1800547242
1998,0.1804544777
1997,0.1807644814
1996,0.1810373068
1995,0.1814719588
1994,0.1818900704
1993,0.1823876202
1992,0.1828793287
1991,0.1831146926
1990,0.1834333539
1989,0.1838226616
1988,0.184289217
1987,0.1845922619
1986,0.1850677133
1985,0.1853190958
1984,0.1857952029
1983,0.1860549599
1982,0.1864941567
1981,0.1866916269
1980,0.1872134805
1979,0.1875780076
1978,0.18793495
1977,0.1882977784
1976,0.1886873692
1975,0.189068988
1974,0.1893763393
1973,0.1897087246
1972,0.1901236773
1971,0.1904993802
1970,0.190865919
1969,0.1912241727
1968,0.1915098429
1967,0.1918313354
1966,0.1921930462
1965,0.192578271
1964,0.192972526
1963,0.1933440417
1962,0.1936123967
1961,0.1939134747
1960,0.194331497
1959,0.1946677417
1958,0.1950163543
1957,0.1952760518
1956,0.1956550926
1955,0.1960925311
1954,0.1964021027
1953,0.1967525631
1952,0.1970689595
1951,0.1973841488
1950,0.1978112906
1949,0.1981443018
1948,0.1983546615
1947,0.1987933069
1946,0.1992069334
1945,0.1996389776
1944,0.1998432577
1943,0.2002368122
1942,0.2004159838
1941,0.2007704079
1940,0.2012399733
1939,0.2015257329
1938,0.2019541562
1937,0.2022701204
1936,0.202647686
1935,0.2028655261
1934,0.2033696473
1933,0.2036825866
1932,0.2040457278
1931,0.2044141889
1930,0.2046694905
1929,0.2052781135
1928,0.2055665404
1927,0.2058112472
1926,0.2060859203
1925,0.2064402103
1924,0.2069922835
1923,0.2073535323
1922,0.2072149813
1921,0.2077042162
1920,0.208556056
1919,0.2087927461
1918,0.2089839429
1917,0.209300667
1916,0.2097266018
1915,0.209908843
1914,0.2105791718
1913,0.2109116912
1912,0.2112357169
1911,0.2116474956
1910,0.2119978368
1909,0.2123131305
1908,0.2123960257
1907,0.2125289887
1906,0.2134724408
1905,0.213863045
1904,0.2140175104
1903,0.2144292742
1902,0.2146264464
1901,0.2149056494
1900,0.215830341
1899,0.2161664814
1898,0.2164222151
1897,0.2166179121
1896,0.2168488055
1895,0.2169913203
1894,0.2173425853
1893,0.2179933488
1892,0.2181781232
1891,0.2184181511
1890,0.2191644311
1889,0.2193542868
1888,0.2195675373
1887,0.2198852897
1886,0.2202450782
1885,0.2204522341
1884,0.2209843993
1883,0.2212473005
1882,0.221355319
1881,0.2217634469
1880,0.2221037447
1879,0.2220270336
1878,0.2221682817
1877,0.2227788121
1876,0.2232054174
1875,0.2230965495
1874,0.2233995646
1873,0.2238570303
1872,0.2240719348
1871,0.2242817432
1870,0.2248268723
1869,0.2248347402
1868,0.2254114896
1867,0.2259324491
1866,0.2256525904
1865,0.2259441167
1864,0.2264071852
1863,0.2265061289
1862,0.2264546305
1861,0.2266096175
1860,0.2271995693
1859,0.2272999585
1858,0.2272675484
1857,0.2276316285
1856,0.2277894467
1855,0.2276418656
1854,0.2282713205
1853,0.2286429554
1852,0.2284128517
1851,0.2283634096
1850,0.2283810526
1849,0.2283434868
1848,0.2288539261
1847,0.2292992324
1846,0.2293407917
1845,0.229104355
1844,0.2290765345
1843,0.2289316356
1842,0.2293342948
1841,0.2296176702
1840,0.2295602709
1839,0.2294978797
1838,0.2294141948
1837,0.2297032923
1836,0.2296803594
1835,0.2298404574
1834,0.2295746356
1833,0.2294638455
1832,0.2295209318
1831,0.2296766192
1830,0.2295909673
1829,0.2296099961
1828,0.229413569
1827,0.229374364
1826,0.2294778973
1825,0.229287371
1824,0.2291337103
1823,0.2290358841
1822,0.2289015055
1821,0.2290658355
1820,0.229058519
1819,0.2287896127
1818,0.2285600901
1817,0.2283797413
1816,0.2283129543
1815,0.2282309085
1814,0.2280167788
1813,0.2278736085
1812,0.2277454138
1811,0.2275642604
1810,0.2273424268
1809,0.2271361202
1808,0.2268911451
1807,0.2268709391
1806,0.2266759723
1805,0.2264554501
1804,0.2262085527
1803,0.225860849
1802,0.2256917655
1801,0.2255699486
1800,0.2253487259
1799,0.2250928581
1798,0.2248516381
1797,0.224622488
1796,0.2244080603
1795,0.2240681648
1794,0.2239039242
1793,0.223521471
1792,0.2232614607
1791,0.222985357
1790,0.2227381319
1789,0.2224949449
1788,0.2222415209
1787,0.2219453454
1786,0.2215689123
1785,0.2214400172
1784,0.2210389525
1783,0.2206435204
1782,0.2204552442
1781,0.2201615274
1780,0.2198286355
1779,0.2194812447
1778,0.2191574425
1777,0.2188292146
1776,0.2185710669
1775,0.2182441354
1774,0.2178948373
1773,0.2175312638
1772,0.2173008174
1771,0.2169519365
1770,0.2166324556
1769,0.2163107693
1768,0.2159168422
1767,0.2156534493
1766,0.2153106034
1765,0.21500884
1764,0.2145662457
1763,0.214382574
1762,0.2140456885
1761,0.2136675268
1760,0.2133283615
1759,0.2130131871
1758,0.212683782
1757,0.2124338597
1756,0.2120492905
1755,0.2117129564
1754,0.2113758475
1753,0.2111085951
1752,0.2107463926
1751,0.2104284018
1750,0.2100554854
1749,0.2096517533
1748,0.2093625367
1747,0.2091841549
1746,0.20870848
1745,0.2084046602
1744,0.2080797255
1743,0.2076768279
1742,0.2073224485
1741,0.2069692761
1740,0.2066872865
1739,0.2064023167
1738,0.2060298026
1737,0.2057134956
1736,0.205301702
1735,0.2049606144
1734,0.2046306282
1733,0.2041977346
1732,0.2039151788
1731,0.203581512
1730,0.203251496
1729,0.202877
1728,0.2024679184
1727,0.2021121979
1726,0.201861769
1725,0.201390624
1724,0.2010615319
1723,0.2006017268
1722,0.2002700716
1721,0.1999894828
1720,0.1995634437
1719,0.199129045
1718,0.1987430751
1717,0.1983442008
1716,0.198086828
1715,0.1976216435
1714,0.1972400993
1713,0.1968298107
1712,0.1965192556
1711,0.1961052567
1710,0.1957348436
1709,0.1952639967
1708,0.1949004978
1707,0.1945715398
1706,0.1941843778
1705,0.1937139183
1704,0.193346858
1703,0.1928432882
1702,0.1924628615
1701,0.1921157241
1700,0.1917636991
1699,0.1912535578
1698,0.1908284426
1697,0.1904266477
1696,0.1900190264
1695,0.1896114945
1694,0.1892185956
1693,0.1888049394
1692,0.1884071827
1691,0.1879509985
1690,0.1876429319
1689,0.1871423423
1688,0.1866520792
1687,0.1863453239
1686,0.1858903468
1685,0.1854615211
1684,0.1850204617
1683,0.1846530437
1682,0.1842095703
1681,0.1839480251
1680,0.1833790988
1679,0.1829020828
1678,0.1825475991
1677,0.1821333915
1676,0.1817441285
1675,0.1813497245
1674,0.180924207
1673,0.1805376709
1672,0.1801437289
1671,0.1797603071
1670,0.1793625653
1669,0.179011628
1668,0.178508848
1667,0.1781460345
1666,0.1777510941
1665,0.1773630828
1664,0.1769051701
1663,0.1764377356
1662,0.1760887653
1661,0.1757061183
1660,0.1753483117
1659,0.1749368459
1658,0.17449525
1657,0.1740884483
1656,0.1736819297
1655,0.1733224243
1654,0.1729224324
1653,0.1725149602
1652,0.1720555723
1651,0.1717485338
1650,0.1713011116
1649,0.1708890796
1648,0.1704656482
1647,0.1701778471
1646,0.1697682291
1645,0.1693351418
1644,0.1690273434
1643,0.1685418338
1642,0.1681709737
1641,0.1678515375
1640,0.1673637629
1639,0.1670092642
1638,0.1665915698
1637,0.1662668735
1636,0.165860787
1635,0.1655195951
1634,0.1650463045
1633,0.1646627933
1632,0.1642906815
1631,0.1639702469
1630,0.1636362672
1629,0.1631936878
1628,0.162912026
1627,0.1624345332
1626,0.1621736735
1625,0.1618055999
1624,0.1614650637
1623,0.1610367596
1622,0.1606261879
1621,0.1603316963
1620,0.1600680202
1619,0.1596761197
1618,0.1593189389
1617,0.1589290947
1616,0.158590883
1615,0.1583237052
1614,0.1579529643
1613,0.1575731337
1612,0.1573362499
1611,0.1569660157
1610,0.1566827595
1609,0.156349957
1608,0.155991286
1607,0.1557008475
1606,0.1553915292
1605,0.1550813913
1604,0.1548259854
1603,0.1544957161
1602,0.1542023569
1601,0.1539461613
1600,0.1536509693
1599,0.1533908993
1598,0.153129667
1597,0.1527846754
1596,0.1525637805
1595,0.1523312777
1594,0.151996538
1593,0.1517629772
1592,0.1515472978
1591,0.1512401998
1590,0.1510399878
1589,0.1508196592
1588,0.1505909413
1587,0.1502860785
1586,0.1501093954
1585,0.149857834
1584,0.1497064531
1583,0.1494421661
1582,0.1492340714
1581,0.1490325928
1580,0.1488362104
1579,0.1485958844
1578,0.1483786106
1577,0.1481556892
1576,0.147933647
1575,0.1477511078
1574,0.1476123929
1573,0.1474407464
1572,0.1471899301
1571,0.1469764411
1570,0.1468090415
1569,0.1466871798
1568,0.1464589238
1567,0.1462584436
1566,0.1460983753
1565,0.1459457725
1564,0.1457718611
1563,0.1456137598
1562,0.1454884857
1561,0.1452992409
1560,0.1451835483
1559,0.1449813396
1558,0.1448155344
1557,0.1446552128
1556,0.14450109
1555,0.1443774849
1554,0.1442940086
1553,0.1440982819
1552,0.1439323425
1551,0.1437591165
1550,0.1436945349
1549,0.1435431391
1548,0.1434332281
1547,0.1433024108
1546,0.1431137472
1545,0.1430521011
1544,0.1429166794
1543,0.1428162456
1542,0.142664209
1541,0.142522186
1540,0.1423903108
1539,0.1423612386
1538,0.1422017813
1537,0.1421046555
1536,0.141975522
1535,0.1418812275
1534,0.1418302655
1533,0.1417171061
1532,0.141600281
1531,0.1414430141
1530,0.1414006054
1529,0.1413223147
1528,0.1411654651
1527,0.1410687417
1526,0.1409914792
1525,0.140919745
1524,0.1408390105
1523,0.1407557726
1522,0.1406434327
1521,0.1405900866
1520,0.1404670179
1519,0.1404332817
1518,0.1403299868
1517,0.1402712762
1516,0.1401239187
1515,0.140102759
1514,0.1400748193
1513,0.1400412619
1512,0.1398823708
1511,0.1397875994
1510,0.1397484243
1509,0.1396585107
1508,0.1396299899
1507,0.1395682991
1506,0.1394579411
1505,0.1393913925
1504,0.1393265575
1503,0.1393360794
1502,0.1392571628
1501,0.1391716301
1500,0.1390656978
1499,0.139055565
1498,0.1389987767
1497,0.1389459819
1496,0.1389004886
1495,0.1388377994
1494,0.1388067603
1493,0.1387550682
1492,0.1386787146
1491,0.138602376
1490,0.1385866702
1489,0.1385160536
1488,0.1385404468
1487,0.138485074
1486,0.138417244
1485,0.1382846087
1484,0.1383579969
1483,0.138313368
1482,0.1382470578
1481,0.1381847411
1480,0.1381030828
1479,0.1381675899
1478,0.1380854845
1477,0.1380699724
1476,0.1379916072
1475,0.1379216164
1474,0.1378983855
1473,0.1379326433
1472,0.1378955841
1471,0.1378275305
1470,0.1377969086
1469,0.1377552897
1468,0.1377158314
1467,0.1377558559
1466,0.1376436502
1465,0.1376302391
1464,0.1375668496
1463,0.1375533193
1462,0.1375482976
1461,0.1374681145
1460,0.1374694705
1459,0.1374387443
1458,0.1373674124
1457,0.1373752654
1456,0.1373486221
1455,0.1373334676
1454,0.137293756
1453,0.1371776164
1452,0.1371552199
1451,0.1371782273
1450,0.1371874213
1449,0.1371293366
1448,0.1371150762
1447,0.1370685697
1446,0.1370584518
1445,0.1370609403
1444,0.1370407492
1443,0.1369838268
1442,0.1369733959
1441,0.1369026005
1440,0.1368382871
1439,0.136802882
1438,0.1368243545
1437,0.1368884593
1436,0.1368215531
1435,0.1367542595
1434,0.1367200762
1433,0.1367167681
1432,0.1367084086
1431,0.1367516071
1430,0.1366012096
1429,0.1365250647
1428,0.1366375983
1427,0.136572212
1426,0.1365877092
1425,0.1364571601
1424,0.1364730299
1423,0.1364759058
1422,0.1364131421
1421,0.1363587379
1420,0.1363696158
1419,0.1363281608
1418,0.1363917738
1417,0.1363183111
1416,0.1362301707
1415,0.1363156587
1414,0.1362230778
1413,0.1362514198
1412,0.1361886263
1411,0.136070013
1410,0.1361327618
1409,0.1361887902
1408,0.1361485571
1407,0.1360928863
1406,0.1361042857
1405,0.1360427141
1404,0.1361158043
1403,0.1359832585
1402,0.1359661669
1401,0.1360629946
1400,0.1360631734
1399,0.1359899938
1398,0.1358442158
1397,0.1358694881
1396,0.1360082328
1395,0.1360716373
1394,0.1358935982
1393,0.1359134912
1392,0.1360417902
1391,0.1359753758
1390,0.1357896179
1389,0.1358233839
1388,0.1359064132
1387,0.1358282566
1386,0.1358520091
1385,0.1358133256
1384,0.1357639283
1383,0.1358677298
1382,0.1358506978
1381,0.1357258558
1380,0.1357152313
1379,0.135638535
1378,0.1355514079
1377,0.1355609
1376,0.1355186254
1375,0.1354073882
1374,0.1353805065
1373,0.1352947205
1372,0.1353895962
1371,0.1354144216
1370,0.1353492886
1369,0.1352331787
1368,0.1353381574
1367,0.1353681386
1366,0.1351863593
1365,0.1351938844
1364,0.135249719
1363,0.1350819468
1362,0.1353084594
1361,0.1353295296
1360,0.1352037042
1359,0.1351788193
1358,0.1351736635
1357,0.1351370215
1356,0.1351042688
1355,0.1351248622
1354,0.1351152509
1353,0.1351049393
1352,0.1350723356
1351,0.1350905299
1350,0.1351049095
1349,0.1350594312
1348,0.135002315
1347,0.135067597
1346,0.1350377798
1345,0.1350306422
1344,0.1350237876
1343,0.1349586844
1342,0.1350306123
1341,0.1350111514
1340,0.1350744516
1339,0.1350222081
1338,0.1350426227
1337,0.1350690871
1336,0.1350288391
1335,0.1350089163
1334,0.135025844
1333,0.1350499988
1332,0.1350549161
1331,0.1350502819
1330,0.1350970268
1329,0.1350925714
1328,0.1350666732
1327,0.1351451129
1326,0.1351315528
1325,0.135155648
1324,0.1351367086
1323,0.135121718
1322,0.1351659
1321,0.1352373511
1320,0.1352739334
1319,0.1352487653
1318,0.1352465749
1317,0.1352377385
1316,0.1352971941
1315,0.1353741139
1314,0.1353290081
1313,0.1353968084
1312,0.1353831589
1311,0.1354182363
1310,0.1354578733
1309,0.1355571747
1308,0.1354877949
1307,0.1355642825
1306,0.1355996579
1305,0.1356587708
1304,0.1357186288
1303,0.1357573122
1302,0.1357318014
1301,0.1358442903
1300,0.1358710825
1299,0.1358889639
1298,0.1359698474
1297,0.1359956264
1296,0.1360292286
1295,0.1361421496
1294,0.1361508965
1293,0.1361967623
1292,0.1362746656
1291,0.1363439262
1290,0.1364210099
1289,0.1365202069
1288,0.1364790201
1287,0.1365489513
1286,0.1366226971
1285,0.1367381662
1284,0.1368135661
1283,0.1368971765
1282,0.1369143128
1281,0.1370667219
1280,0.1371206045
1279,0.1371719688
1278,0.1372686923
1277,0.1373396814
1276,0.1373795569
1275,0.1375214458
1274,0.1376509666
1273,0.1376640797
1272,0.137845844
1271,0.1378945112
1270,0.1379781663
1269,0.1381184608
1268,0.1382179409
1267,0.1383096278
1266,0.1384268105
1265,0.1385194659
1264,0.1386708021
1263,0.1387841403
1262,0.1388776451
1261,0.1389990598
1260,0.1391150802
1259,0.1392262429
1258,0.1393922716
1257,0.1395268291
1256,0.1396430135
1255,0.1397877783
1254,0.1398965567
1253,0.1400104612
1252,0.140203774
1251,0.1403424442
1250,0.1404438317
1249,0.1405756325
1248,0.1407688856
1247,0.1409127265
1246,0.1410499662
1245,0.1412437558
1244,0.141380772
1243,0.1415456682
1242,0.1417131573
1241,0.1418502629
1240,0.1420013607
1239,0.1421829313
1238,0.1423587948
1237,0.1425353438
1236,0.1426587105
1235,0.1428104192
1234,0.143027097
1233,0.1432383209
1232,0.14338696
1231,0.1436254531
1230,0.1437355131
1229,0.1439671069
1228,0.1441963613
1227,0.1444029063
1226,0.1445382088
1225,0.1446944773
1224,0.1449619979
1223,0.1451597512
1222,0.1454040706
1221,0.1455806047
1220,0.1458499283
1219,0.1460323185
1218,0.1462347955
1217,0.1464561671
1216,0.1467242986
1215,0.1469914466
1214,0.147183314
1213,0.1474380642
1212,0.1476764381
1211,0.1479624659
1210,0.1481855512
1209,0.1484456062
1208,0.1486958712
1207,0.1489851773
1206,0.1491896063
1205,0.1494790614
1204,0.1497649699
1203,0.1500120014
1202,0.150316447
1201,0.1505882591
1200,0.1508612782
1199,0.1509994864
1198,0.151291132
1197,0.1515599936
1196,0.1518627852
1195,0.1521526128
1194,0.1524717659
1193,0.152763918
1192,0.1530838162
1191,0.1533308029
1190,0.1536613554
1189,0.1539702564
1188,0.1543347389
1187,0.1545850188
1186,0.1549025923
1185,0.1552304029
1184,0.1555614918
1183,0.1559009403
1182,0.1561923772
1181,0.1565050036
1180,0.1568524539
1179,0.1571925133
1178,0.1575028896
1177,0.1578096449
1176,0.1581327617
1175,0.1584296823
1174,0.158805564
1173,0.1591220349
1172,0.1594316959
1171,0.1597173512
1170,0.1600783765
1169,0.1603932232
1168,0.1607636958
1167,0.1610991359
1166,0.1613415033
1165,0.1616750211
1164,0.1620620042
1163,0.1624005586
1162,0.1627282798
1161,0.1630675495
1160,0.1633625776
1159,0.1637085378
1158,0.1640836149
1157,0.1644560397
1156,0.1648004353
1155,0.1650942713
1154,0.1654574126
1153,0.1658280194
1152,0.166206032
1151,0.166582644
1150,0.1669691503
1149,0.1672978997
1148,0.1677034348
1147,0.1681154221
1146,0.1685115844
1145,0.1689125597
1144,0.1693190932
1143,0.1697603911
1142,0.1702032089
1141,0.1706237048
1140,0.1710507125
1139,0.171540156
1138,0.1720073819
1137,0.1724378616
1136,0.1728986055
1135,0.1734471768
1134,0.1739858836
1133,0.1744713783
1132,0.1750161648
1131,0.1755002886
1130,0.1759910434
1129,0.1764972359
1128,0.177095741
1127,0.1776413023
1126,0.1782173961
1125,0.1787606925
1124,0.1792670786
1123,0.1798575968
1122,0.1804538071
1121,0.181000784
1120,0.1815606207
1119,0.1821621805
1118,0.1826738566
1117,0.1832870245
1116,0.1838627905
1115,0.1844178736
1114,0.1849970073
1113,0.1855348796
1112,0.1860851943
1111,0.1866035014
1110,0.1871664375
1109,0.1876569688
1108,0.1882159561
1107,0.1887571961
1106,0.1892771125
1105,0.1897015125
1104,0.190187335
1103,0.1906549484
1102,0.191122219
1101,0.1916019768
1100,0.1919465363
1099,0.1924051642
1098,0.192809388
1097,0.193214044
1096,0.1935471892
1095,0.1938878298
1094,0.1941868067
1093,0.194495827
1092,0.1948357075
1091,0.1951324195
1090,0.1953454912
1089,0.1956032366
1088,0.1958939135
1087,0.1961160749
1086,0.196345225
1085,0.1965099275
1084,0.1967341155
1083,0.1969105899
1082,0.197114557
1081,0.1973192841
1080,0.1974831372
1079,0.1976712942
1078,0.1978135705
1077,0.1979850978
1076,0.1981932074
1075,0.1983562112
1074,0.1985014081
1073,0.198779434
1072,0.1989175379
1071,0.1991345286
1070,0.1993585527
1069,0.1995578259
1068,0.1997802258
1067,0.2000068426
1066,0.2003278285
1065,0.2005558461
1064,0.2008201778
1063,0.2011492252
1062,0.2014419138
1061,0.2017615438
1060,0.2020513862
1059,0.2023317367
1058,0.202642113
1057,0.2030132264
1056,0.2033860683
1055,0.2038000226
1054,0.2040468454
1053,0.2044563442
1052,0.2048256099
1051,0.2052549869
1050,0.2056239694
1049,0.2059798837
1048,0.2063606828
1047,0.2067642063
1046,0.2070616186
1045,0.2074689567
1044,0.207809478
1043,0.2081190646
1042,0.2084404975
1041,0.2088487148
1040,0.2091048807
1039,0.2093798071
1038,0.2096762061
1037,0.20997715
1036,0.2102252692
1035,0.2104385793
1034,0.2106848657
1033,0.2108734548
1032,0.2110164613
1031,0.2112143785
1030,0.211327672
1029,0.2114400864
1028,0.2114690244
1027,0.2115994245
1026,0.2116666287
1025,0.21171543
1024,0.2116606086
1023,0.2116887122
1022,0.2116657943
1021,0.2115952522
1020,0.2115667611
1019,0.2114655226
1018,0.2113133967
1017,0.2112385333
1016,0.211115703
1015,0.2109906673
1014,0.2108447254
1013,0.2106184363
1012,0.210486114
1011,0.2103295326
1010,0.2101379484
1009,0.2098668814
1008,0.2096144259
1007,0.2094546407
1006,0.2092010826
1005,0.209004879
1004,0.2087453157
1003,0.2084507048
1002,0.2081589848
1001,0.2078372538
1000,0.2076518983
999,0.2073366344
998,0.2069983631
997,0.206720829
996,0.2063921988
995,0.206020236
994,0.2056810856
993,0.2053892165
992,0.2049695849
991,0.2046222538
990,0.2042671591
989,0.203864634
988,0.2035447806
987,0.2031249553
986,0.2028756738
985,0.2024321407
984,0.2020799071
983,0.2016660571
982,0.2012630999
981,0.2008705735
980,0.2005528361
979,0.2002117336
978,0.1998447627
977,0.1994802505
976,0.1991508752
975,0.1988435984
974,0.198539272
973,0.1982385218
972,0.1978865713
971,0.197518304
970,0.1972343177
969,0.1970134974
968,0.1966337115
967,0.1963377297
966,0.1960462183
965,0.1957600713
964,0.1956056207
963,0.1952386796
962,0.1949404776
961,0.1946046501
960,0.1943910718
959,0.1940525472
958,0.1938047111
957,0.1935068816
956,0.1932271272
955,0.1928516924
954,0.1925094724
953,0.1922467202
952,0.1918623
951,0.1915652454
950,0.1912754327
949,0.1908386797
948,0.1905485839
947,0.1902069002
946,0.1898245662
945,0.1894987822
944,0.1890947074
943,0.1886490434
942,0.1881822646
941,0.1877994239
940,0.1875607967
939,0.1871964633
938,0.1867647916
937,0.1862499565
936,0.1860581338
935,0.1854930967
934,0.185229674
933,0.1848627776
932,0.184391588
931,0.1840648353
930,0.1836064756
929,0.183282122
928,0.1828508079
927,0.18250902
926,0.1820210069
925,0.1815747023
924,0.181138441
923,0.1808370948
922,0.1805447787
921,0.1800528467
920,0.1794784963
919,0.1791516244
918,0.1787669361
917,0.1783645302
916,0.1780048758
915,0.1774974912
914,0.1772532761
913,0.1767780483
912,0.1765357107
911,0.1759710461
910,0.1756322533
909,0.1751088649
908,0.1746608615
907,0.1744345129
906,0.1742538661
905,0.1736929715
904,0.1733627021
903,0.1731030643
902,0.1727107465
901,0.1724133343
900,0.1718742251
899,0.1627172381
898,0.172931999
897,0.1702358425
896,0.1745459586
895,0.1745577306
894,0.1714756489
893,0.1665370911
892,0.1741630882
891,0.1656531841
890,0.169254601
889,0.1717161685
888,0.170764327
887,0.1685503125
886,0.1676869094
885,0.1659116447
884,0.1719804555
883,0.1735183895
882,0.1718763113
881,0.1674779803
880,0.1697574854
879,0.1675780416
878,0.1661532819
877,0.1688840687
876,0.1662930697
875,0.1643441916
874,0.1695545614
873,0.1677702516
872,0.1678644568
871,0.1700969636
870,0.1656069458
869,0.1651066542
868,0.1661390513
867,0.1657307148
866,0.1668349504
865,0.1647122949
864,0.167510733
863,0.1663552672
862,0.1661696434
861,0.1651526093
860,0.1649197042
859,0.1659241915
858,0.1659240425
857,0.1654998809
856,0.1641642302
855,0.1651147604
854,0.165291518
853,0.1652467847
852,0.1657169908
851,0.1652549654
850,0.1657322645
849,0.1650056988
848,0.1659018099
847,0.1645790637
846,0.1643877327
845,0.1650561839
844,0.1646755785
843,0.1649648994
842,0.1647966653
841,0.165007934
840,0.1643399298
839,0.16487059
838,0.1652144194
837,0.1645886004
836,0.1644615978
835,0.1640773118
834,0.1642520279
833,0.1649114192
832,0.1647628397
831,0.1647292078
830,0.1654574126
829,0.1649943739
828,0.1652922034
827,0.1649225503
826,0.1657283604
825,0.165496394
824,0.1650718302
823,0.1658982486
822,0.1660452485
821,0.1657674611
820,0.1662142724
819,0.1660959721
818,0.1663241982
817,0.1662936807
816,0.1666315347
815,0.1667537689
814,0.1665286273
813,0.1669100672
812,0.1671155542
811,0.1678682715
810,0.1679770201
809,0.1680275947
808,0.1682563871
807,0.1687253565
806,0.1685723662
805,0.1688494384
804,0.1696845144
803,0.1693727672
802,0.1697589308
801,0.1695910543
800,0.1702089161
799,0.1700428873
798,0.1703310162
797,0.1710889786
796,0.1707981229
795,0.1715916842
794,0.17131643
793,0.1712721884
792,0.1720483005
791,0.1722577363
790,0.1722579002
789,0.172704041
788,0.1728095859
787,0.1731149852
786,0.1730215549
785,0.1732004434
784,0.1738038808
783,0.173904866
782,0.1742979884
781,0.1745651215
780,0.1749968678
779,0.1748450696
778,0.1756914556
777,0.1754660457
776,0.1760805249
775,0.1763581187
774,0.1767591536
773,0.1771058291
772,0.1777599454
771,0.1778955609
770,0.1783560216
769,0.1788510233
768,0.1792007089
767,0.179536894
766,0.1801030487
765,0.1804647595
764,0.1813371778
763,0.1817108542
762,0.1822182089
761,0.1827167869
760,0.1837725937
759,0.1838549227
758,0.1844694465
757,0.1848282367
756,0.1854669452
755,0.1860027909
754,0.1863882244
753,0.1868570149
752,0.1869664043
751,0.1877503991
750,0.1883560866
749,0.188702479
748,0.1890859455
747,0.1893244684
746,0.189506799
745,0.1898489296
744,0.1901252419
743,0.1904233247
742,0.1906036735
741,0.1907451004
740,0.1910724938
739,0.1909600198
738,0.1910987049
737,0.1913820803
736,0.1915168464
735,0.1914048046
734,0.1913989782
733,0.191525653
732,0.191798687
731,0.1916484684
730,0.1919212937
729,0.1917322576
728,0.1920694709
727,0.1919719875
726,0.1921303421
725,0.1922681928
724,0.1925055683
723,0.1924259663
722,0.1925897747
721,0.1930429339
720,0.1926722974
719,0.193132937
718,0.1932347268
717,0.1931442469
716,0.1933332831
715,0.1936884373
714,0.193981573
713,0.1941887885
712,0.1943457127
711,0.1943466961
710,0.1947633475
709,0.1948933303
708,0.1952148527
707,0.1953284442
706,0.1952353865
705,0.1951862872
704,0.1951289177
703,0.1954493374
702,0.1952918768
701,0.1953439862
700,0.1952905804
699,0.1954251826
698,0.195408538
697,0.195195213
696,0.1952337325
695,0.1952441186
694,0.1949739009
693,0.1949311495
692,0.1948599517
691,0.1945987642
690,0.1945196837
689,0.1942663193
688,0.1939243227
687,0.1938042194
686,0.1936239153
685,0.1938023567
684,0.193379432
683,0.1932577044
682,0.1929657459
681,0.1928040236
680,0.1925085038
679,0.1926264316
678,0.192205295
677,0.1921646297
676,0.1919862181
675,0.191763863
674,0.1916227043
673,0.1914099157
672,0.191102758
671,0.1908801794
670,0.1907241344
669,0.1906886399
668,0.1904522926
667,0.1902222335
666,0.1899673045
665,0.1898221225
664,0.1898096949
663,0.1895076334
662,0.1893829107
661,0.1892174333
660,0.1891747713
659,0.1889759749
658,0.1888466477
657,0.1886853725
656,0.1886364073
655,0.1886234581
654,0.1883901656
653,0.1884479225
652,0.1881329566
651,0.1880612224
650,0.1879993677
649,0.1878243983
648,0.1876645833
647,0.1877552718
646,0.1874947399
645,0.18742235
644,0.1871406585
643,0.1872599274
642,0.1870761514
641,0.1866587102
640,0.1865753382
639,0.1866085827
638,0.1865349263
637,0.1862852573
636,0.1861382723
635,0.1858573109
634,0.185822919
633,0.1858109236
632,0.1856219172
631,0.1855438054
630,0.1855063587
629,0.1852830946
628,0.1852597296
627,0.1850016415
626,0.1850880831
625,0.1850626767
624,0.1848732382
623,0.1847286522
622,0.1847592592
621,0.1847210377
620,0.1847211272
619,0.1845643073
618,0.1846072972
617,0.184668839
616,0.1845740825
615,0.1848429292
614,0.1847705096
613,0.1847638637
612,0.1847255528
611,0.1848354936
610,0.1848476827
609,0.1850321591
608,0.1851954162
607,0.1852558851
606,0.1854062527
605,0.185630694
604,0.1859101206
603,0.1859935373
602,0.1863026172
601,0.1867328882
600,0.1867700517
599,0.1870164126
598,0.1873503774
597,0.1875173748
596,0.1877804399
595,0.1880437434
594,0.1882925481
593,0.1884883493
592,0.1888176501
591,0.1888446063
590,0.189023301
589,0.1892006993
588,0.189422667
587,0.1895810515
586,0.1896172166
585,0.1898733824
584,0.1899308264
583,0.1900141686
582,0.1900414824
581,0.1902053356
580,0.1900020242
579,0.1904006898
578,0.1906666309
577,0.1907473505
576,0.1907583475
575,0.1910572201
574,0.1913450062
573,0.191871807
572,0.1920967847
571,0.1923249811
570,0.1928907186
569,0.1930341721
568,0.1936752945
567,0.1941144317
566,0.1945528239
565,0.1952543408
564,0.1956873536
563,0.196269393
562,0.1965435445
561,0.1971224248
560,0.1975713372
559,0.1978388429
558,0.1982572377
557,0.1986491978
556,0.1987116933
555,0.1988298446
554,0.1990878135
553,0.1991490275
552,0.1991389543
551,0.1987680346
550,0.1987844706
549,0.1989791393
548,0.1986936182
547,0.1985135972
546,0.1981897801
545,0.1980334073
544,0.1982045621
543,0.1979178488
542,0.1978653818
541,0.1978349239
540,0.1980771124
539,0.1981402636
538,0.1985414028
537,0.1985453218
536,0.1987846345
535,0.1992415339
534,0.1997602582
533,0.2000772506
532,0.2003087401
531,0.2010528892
530,0.2013772577
529,0.2017886788
528,0.2020595968
527,0.2025471032
526,0.2028590292
525,0.203113839
524,0.2035325766
523,0.2037086934
522,0.2039741725
521,0.2039565742
520,0.2042377144
519,0.2042304128
518,0.2040329725
517,0.2041784227
516,0.2044981718
515,0.204450503
514,0.2042914033
513,0.2043680996
512,0.2046762854
511,0.2047408223
510,0.2048692852
509,0.205342859
508,0.205496192
507,0.2056994587
506,0.2060175687
505,0.2066387534
504,0.2067112476
503,0.2073845416
502,0.2079646736
501,0.2083003074
500,0.2091702372
499,0.2098993957
498,0.2103920579
497,0.2107696831
496,0.2112046927
495,0.2118149549
494,0.2122007459
493,0.2123831213
492,0.2124563605
491,0.2125104964
490,0.2125860751
489,0.21241422
488,0.2119890302
487,0.2117223889
486,0.2112221569
485,0.2109232247
484,0.2108584791
483,0.2105906904
482,0.2100811452
481,0.2101689428
480,0.2101601362
479,0.2102726549
478,0.2104247063
477,0.2106334865
476,0.210937947
475,0.2114069015
474,0.2120104879
473,0.2127542794
472,0.2131435722
471,0.2137220204
470,0.2143171877
469,0.2145782113
468,0.2151658386
467,0.2153420597
466,0.2155774981
465,0.2155689448
464,0.2153913528
463,0.2152171135
462,0.2150277346
461,0.2146001011
460,0.2141052336
459,0.2138336599
458,0.2135359645
457,0.2133844644
456,0.2131357491
455,0.2133289576
454,0.2131384611
453,0.2132992148
452,0.213459909
451,0.2139876783
450,0.214136377
449,0.2147069424
448,0.2148165852
447,0.2154829353
446,0.2159148008
445,0.2163342834
444,0.216516301
443,0.2173067927
442,0.217735827
441,0.2176896781
440,0.2181211114
439,0.2184562832
438,0.2187504768
437,0.2186558992
436,0.2190037072
435,0.2192628831
434,0.2194836885
433,0.2198693007
432,0.2200496346
431,0.2204769999
430,0.2206900716
429,0.2212517411
428,0.222187534
427,0.2223794162
426,0.2225054801
425,0.2229930609
424,0.2234388441
423,0.2241906822
422,0.2247168124
421,0.2250383496
420,0.2251717597
419,0.2253974825
418,0.22533755
417,0.2254402936
416,0.2256930619
415,0.225808695
414,0.2260119319
413,0.2261356562
412,0.2263320833
411,0.2266482264
410,0.2271901816
409,0.2278082669
408,0.22807239
407,0.228678152
406,0.2294137478
405,0.230191946
404,0.2307130694
403,0.231632784
402,0.2322046012
401,0.2326896191
400,0.2333215922
399,0.2339569926
398,0.2343607992
397,0.2346788496
396,0.2347944379
395,0.2348270267
394,0.2352295816
393,0.2355647534
392,0.2359610945
391,0.2365100235
390,0.2369435579
389,0.2373556048
388,0.2375538051
387,0.238393873
386,0.238900438
385,0.2393493801
384,0.2398112863
383,0.2404376566
382,0.2413051724
381,0.2421798408
380,0.2429242879
379,0.2437388003
378,0.2445996255
377,0.2453913689
376,0.2463879734
375,0.2471960634
374,0.2478716522
373,0.2491640151
372,0.2495537996
371,0.2503549159
370,0.2512187064
369,0.2514523864
368,0.2518321574
367,0.2529743314
366,0.2528922856
365,0.2539934814
364,0.2540645599
363,0.2543506622
362,0.2554842234
361,0.2559885383
360,0.2569614649
359,0.2580616474
358,0.2594911456
357,0.260143131
356,0.2615631521
355,0.262581557
354,0.2636393607
353,0.2645719945
352,0.265491277
351,0.2671826184
350,0.2678306699
349,0.266307503
348,0.2667458057
347,0.2687039375
346,0.2686629891
345,0.2696353793
344,0.2715744078
343,0.2716822326
342,0.2723515332
341,0.2730541527
340,0.2752015293
339,0.2763800919
338,0.2771354616
337,0.2780551016
336,0.2800621986
335,0.2820015252
334,0.282540381
333,0.28315714
332,0.2848769426
331,0.2853600085
330,0.2873033285
329,0.2876469493
328,0.2890430689
327,0.2899143696
326,0.2916193902
325,0.2933088243
324,0.2940164804
323,0.2960193157
322,0.2977395356
321,0.3007927239
320,0.3022924066
319,0.3033873141
318,0.3049664795
317,0.3063813746
316,0.3085647523
315,0.3100666404
314,0.3129171729
313,0.314966768
312,0.3165394962
311,0.3181805313
310,0.320489049
309,0.3222324252
308,0.3245563805
307,0.3274383843
306,0.3287925422
305,0.3324194551
304,0.334071964
303,0.3363302648
302,0.3389850855
301,0.341031611
300,0.3439750075
299,0.3459558189
298,0.3483484983
297,0.3506436348
296,0.3529855311
295,0.3561395705
294,0.3590157628
293,0.3614233136
292,0.3641872406
291,0.3666653633
290,0.3696455657
289,0.372502178
288,0.374999553
287,0.3778778911
286,0.3800444305
285,0.3825713098
284,0.3851672113
283,0.3876830935
282,0.3903287053
281,0.3915004134
280,0.3931921721
279,0.3949623704
278,0.3968438804
277,0.3989473879
276,0.4004355967
275,0.4009909034
274,0.4022206068
273,0.4024291933
272,0.4033743739
271,0.4037356377
270,0.4037356079
269,0.403287828
268,0.4035361111
267,0.4026279151
266,0.4019916058
265,0.4016316235
264,0.4011653364
263,0.4000455737
262,0.3991807401
261,0.3971908391
260,0.3964731097
259,0.3948874176
258,0.3931893706
257,0.391628027
256,0.3900916576
255,0.3880892098
254,0.3864495158
253,0.3837197423
252,0.3814792931
251,0.3785539567
250,0.3759298921
249,0.3728257716
248,0.3691784143
247,0.3664132655
246,0.3626004159
245,0.3589736819
244,0.3547882438
243,0.3508631885
242,0.3476470709
241,0.3437586129
240,0.3400559127
239,0.336905241
238,0.333438158
237,0.3307458162
236,0.3270748854
235,0.3244730532
234,0.3221946061
233,0.3193800449
232,0.3176656365
231,0.3161998391
230,0.3147904575
229,0.3136155903
228,0.3127836883
227,0.3127592802
226,0.3132989705
225,0.3152627349
224,0.3180489838
223,0.3232860267
222,0.3299744725
221,0.3379710913
220,0.3496458828
219,0.3629619479
218,0.3789524436
217,0.3970488608
216,0.4170211852
215,0.4392680526
214,0.4601616561
213,0.4829422235
212,0.5049666762
211,0.5248737931
210,0.5440630913
209,0.5580404401
208,0.5705928206
207,0.5795277953
206,0.5857160687
205,0.588403821
204,0.5879895687
203,0.5852344036
202,0.5801579952
201,0.5714923143
200,0.561475575
