Dodecane_KIT_Vac_1175
Wavelength (nm),Abs
2655,0.07452610135
2654,0.07475357503
2653,0.07523566484
2652,0.07642480731
2651,0.07632599026
2650,0.07775599509
2649,0.07682660222
2648,0.07665016502
2647,0.0769828707
2646,0.07825578749
2645,0.0794339031
2644,0.07806798071
2643,0.07742594928
2642,0.07803901285
2641,0.0776463449
2640,0.07783003151
2639,0.07760805637
2638,0.0774737522
2637,0.0782186836
2636,0.07717440277
2635,0.07477995753
2634,0.07530874759
2633,0.07816392183
2632,0.07442995161
2631,0.07031333447
2630,0.07700094581
2629,0.07800803334
2628,0.07671097666
2627,0.07794803381
2626,0.07930447161
2625,0.07777160406
2624,0.07788775861
2623,0.07826629281
2622,0.07725159079
2621,0.073171556
2620,0.07516983151
2619,0.07812233269
2618,0.07468787581
2617,0.07340297848
2616,0.0781390667
2615,0.07791043073
2614,0.07686380297
2613,0.07862710208
2612,0.07858773321
2611,0.07703080773
2610,0.07729513198
2609,0.07791429758
2608,0.07873051614
2607,0.07982865721
2606,0.07710864395
2605,0.07698215544
2604,0.07813066989
2603,0.0773774758
2602,0.07525512576
2601,0.07817978412
2600,0.07833080739
2599,0.07736491412
2598,0.07693506032
2597,0.07324524224
2596,0.07054714113
2595,0.07068553567
2594,0.07673059404
2593,0.07873554528
2592,0.07875344902
2591,0.07813903689
2590,0.07647191733
2589,0.07640468329
2588,0.07726349682
2587,0.08052638173
2586,0.07850085199
2585,0.07515471429
2584,0.07755590975
2583,0.0800653398
2582,0.07753625512
2581,0.0782725513
2580,0.07928809524
2579,0.07849796861
2578,0.07880325615
2577,0.0802937448
2576,0.08064471185
2575,0.07940462977
2574,0.07977928966
2573,0.08069979399
2572,0.07899600267
2571,0.07890013605
2570,0.07808811963
2569,0.0788936168
2568,0.07917355001
2567,0.07934610546
2566,0.07872859389
2565,0.07892105728
2564,0.07785964012
2563,0.07731279731
2562,0.07609821111
2561,0.07966011018
2560,0.08068520576
2559,0.08022433519
2558,0.08009323478
2557,0.07967071235
2556,0.07955970615
2555,0.07950036228
2554,0.07950468361
2553,0.079111211
2552,0.07880285382
2551,0.07968430221
2550,0.0793954581
2549,0.07960149646
2548,0.07962659001
2547,0.08017495275
2546,0.07961707562
2545,0.07994586229
2544,0.07949395478
2543,0.07924634218
2542,0.07979717851
2541,0.07962998003
2540,0.08013501018
2539,0.08032694459
2538,0.07988758385
2537,0.07931733131
2536,0.07916134596
2535,0.07990015298
2534,0.08005607128
2533,0.07936488092
2532,0.07968850434
2531,0.07975406945
2530,0.08024513721
2529,0.0803212449
2528,0.08057007194
2527,0.08048005402
2526,0.08067148924
2525,0.08054994047
2524,0.08069302887
2523,0.08072473109
2522,0.08034092933
2521,0.08084566891
2520,0.08068211377
2519,0.08089534193
2518,0.0810091868
2517,0.08056857437
2516,0.08078514785
2515,0.08078212291
2514,0.08099708706
2513,0.0808891058
2512,0.08077853918
2511,0.08092805743
2510,0.08125397563
2509,0.08096433431
2508,0.08116809279
2507,0.08066909015
2506,0.0808935985
2505,0.0807954073
2504,0.08107189089
2503,0.08146070689
2502,0.08129782975
2501,0.08149631321
2500,0.08167266846
2499,0.08116465807
2498,0.08127029985
2497,0.08162564784
2496,0.08128552884
2495,0.08134743571
2494,0.08137162775
2493,0.08161243796
2492,0.08192489296
2491,0.08165551722
2490,0.08195903152
2489,0.08158481866
2488,0.08183474839
2487,0.08184787631
2486,0.08185300231
2485,0.08194827288
2484,0.08236216009
2483,0.08187319338
2482,0.08185568452
2481,0.08204773068
2480,0.0818406567
2479,0.08199770004
2478,0.08197218925
2477,0.08217426389
2476,0.08201524615
2475,0.08202252537
2474,0.0820953846
2473,0.08226710558
2472,0.08234895021
2471,0.0825740546
2470,0.08249551058
2469,0.08216644078
2468,0.08236112446
2467,0.08267688006
2466,0.08254650235
2465,0.08233205974
2464,0.08294899017
2463,0.08253720403
2462,0.0826690793
2461,0.08282949775
2460,0.08288767189
2459,0.08271276206
2458,0.08268758655
2457,0.08278366923
2456,0.08257161081
2455,0.08298370987
2454,0.08311837912
2453,0.08280453086
2452,0.08310819417
2451,0.08324033767
2450,0.0830969736
2449,0.08307967335
2448,0.08329511434
2447,0.08336887509
2446,0.08331754059
2445,0.08356629312
2444,0.08358575404
2443,0.08326419443
2442,0.08362350613
2441,0.08361204714
2440,0.08357978612
2439,0.08371609449
2438,0.08385770768
2437,0.08365673572
2436,0.08370368928
2435,0.08403238654
2434,0.08385419101
2433,0.08379969001
2432,0.08426313847
2431,0.08382418007
2430,0.08405274898
2429,0.0842487812
2428,0.08422844857
2427,0.08416145295
2426,0.08439513296
2425,0.08426883072
2424,0.08422917128
2423,0.08442845941
2422,0.08450483531
2421,0.08419372141
2420,0.08465089649
2419,0.08465630561
2418,0.08432386816
2417,0.08464768529
2416,0.08473907411
2415,0.084454678
2414,0.08494857699
2413,0.0850064382
2412,0.08463677019
2411,0.08497429639
2410,0.08522375673
2409,0.08498033881
2408,0.0850853771
2407,0.08537510037
2406,0.08504648507
2405,0.08528401703
2404,0.08531378955
2403,0.0853003636
2402,0.0853767097
2401,0.08561611921
2400,0.08530512452
2399,0.08554273099
2398,0.08569548279
2397,0.08561397344
2396,0.08566287905
2395,0.08598148078
2394,0.08598712832
2393,0.08582860231
2392,0.08620787412
2391,0.08608050644
2390,0.0860702768
2389,0.08638049662
2388,0.08643715829
2387,0.08615701646
2386,0.08649237454
2385,0.08666025102
2384,0.08660052717
2383,0.08669109643
2382,0.08676641434
2381,0.08673755825
2380,0.08682249486
2379,0.08711841702
2378,0.08693274856
2377,0.08700144291
2376,0.08713113517
2375,0.08727703243
2374,0.08722057939
2373,0.08747243881
2372,0.08750749379
2371,0.08742488921
2370,0.08753462881
2369,0.08771716058
2368,0.08779680729
2367,0.08778157085
2366,0.08787111938
2365,0.08806758374
2364,0.08802966774
2363,0.08801517636
2362,0.08833944798
2361,0.08830991387
2360,0.08822800964
2359,0.08840988576
2358,0.08873628825
2357,0.08858469129
2356,0.08865345269
2355,0.08890394866
2354,0.08873073012
2353,0.08893946558
2352,0.0891161114
2351,0.08920831978
2350,0.08915539086
2349,0.08937743306
2348,0.08945312351
2347,0.08963557333
2346,0.08947281539
2345,0.08952889591
2344,0.08995956182
2343,0.08990383893
2342,0.08981501311
2341,0.09023825079
2340,0.09007262439
2339,0.09008389711
2338,0.09038615972
2337,0.09044519812
2336,0.09041841328
2335,0.09051160514
2334,0.0908247903
2333,0.09086106718
2332,0.09084999561
2331,0.09092706442
2330,0.09115780145
2329,0.09125677496
2328,0.09118267894
2327,0.09148423374
2326,0.09169215709
2325,0.09141435474
2324,0.09160850197
2323,0.09203355014
2322,0.09177593142
2321,0.09196387231
2320,0.09220387042
2319,0.0922351107
2318,0.09229552001
2317,0.09235939384
2316,0.0925834626
2315,0.0927317217
2314,0.09264501184
2313,0.09271810204
2312,0.0932000652
2311,0.09317430109
2310,0.09313202649
2309,0.09337574989
2308,0.09361717105
2307,0.09358785301
2306,0.09365204722
2305,0.09388212115
2304,0.09402404726
2303,0.0942088142
2302,0.09405056387
2301,0.0943216309
2300,0.09459772706
2299,0.094401218
2298,0.09470243752
2297,0.09465415031
2296,0.09503863752
2295,0.0949319154
2294,0.09495252371
2293,0.0951487124
2292,0.0956530273
2291,0.09521654993
2290,0.09557056427
2289,0.09590946883
2288,0.09592987597
2287,0.09589762241
2286,0.095791623
2285,0.09618861228
2284,0.09645439684
2283,0.09649541229
2282,0.09643959254
2281,0.09691822529
2280,0.09684173763
2279,0.09684600681
2278,0.09706159681
2277,0.0968209058
2276,0.09772507846
2275,0.09760968387
2274,0.09758622199
2273,0.09768157452
2272,0.09824901074
2271,0.09819422662
2270,0.09822366387
2269,0.09846737981
2268,0.09873946011
2267,0.09920947999
2266,0.09870257974
2265,0.09914845973
2264,0.0990594849
2263,0.09922942519
2262,0.09969079494
2261,0.09935133159
2260,0.0996208787
2259,0.1001201794
2258,0.1002024636
2257,0.09998133779
2256,0.1001114473
2255,0.1003600061
2254,0.1008873284
2253,0.1009677947
2252,0.1008007675
2251,0.1012665853
2250,0.1012988463
2249,0.1014767289
2248,0.1016254053
2247,0.1019505039
2246,0.1019732878
2245,0.1024118885
2244,0.1023338437
2243,0.1022768021
2242,0.1024170071
2241,0.102604717
2240,0.1029437482
2239,0.103182964
2238,0.1030162945
2237,0.1033826098
2236,0.1037320346
2235,0.1039933637
2234,0.1038190499
2233,0.104138203
2232,0.1042905897
2231,0.1047357917
2230,0.1048311442
2229,0.1046677604
2228,0.1049279049
2227,0.1054220647
2226,0.1056177542
2225,0.1056224108
2224,0.1057552695
2223,0.105922699
2222,0.1062965319
2221,0.1066327617
2220,0.1066803113
2219,0.1067570969
2218,0.106957823
2217,0.1072484031
2216,0.1073762029
2215,0.1077237204
2214,0.1077480987
2213,0.1081110239
2212,0.1083370298
2211,0.1086883694
2210,0.1086854115
2209,0.1087952107
2208,0.1089615822
2207,0.1093467325
2206,0.1096760705
2205,0.1098813489
2204,0.1099044904
2203,0.1100505739
2202,0.1103677303
2201,0.1106934994
2200,0.1105886698
2199,0.1106874198
2198,0.1108420268
2197,0.1113047972
2196,0.1114791334
2195,0.1116931066
2194,0.1117233336
2193,0.1119956821
2192,0.1119670048
2191,0.1121346354
2190,0.1127175912
2189,0.1129386202
2188,0.1129050478
2187,0.1132516488
2186,0.1131767929
2185,0.1136627495
2184,0.1138264239
2183,0.1139810681
2182,0.1141878963
2181,0.1142685115
2180,0.1146262735
2179,0.1149159893
2178,0.1150845587
2177,0.1155195534
2176,0.1154251993
2175,0.1157204583
2174,0.115855366
2173,0.1164483577
2172,0.1165586412
2171,0.1168189943
2170,0.1169084385
2169,0.1171993166
2168,0.1175079942
2167,0.1177514642
2166,0.1181245819
2165,0.1183709204
2164,0.118345663
2163,0.1184785664
2162,0.1188669428
2161,0.118997246
2160,0.1193658784
2159,0.1195066646
2158,0.1198982447
2157,0.1200971603
2156,0.1201596558
2155,0.1205263063
2154,0.1207863539
2153,0.1209079996
2152,0.1212009564
2151,0.1216388345
2150,0.1216563731
2149,0.1222023219
2148,0.1224813238
2147,0.122601971
2146,0.1228288114
2145,0.1230514795
2144,0.1232543439
2143,0.1234263852
2142,0.1238547415
2141,0.1240979806
2140,0.1243496612
2139,0.1245701015
2138,0.1249368712
2137,0.1250245422
2136,0.1251914501
2135,0.1257190257
2134,0.1259931624
2133,0.1262358278
2132,0.1265300512
2131,0.1268263012
2130,0.1269122362
2129,0.1271522641
2128,0.1276079267
2127,0.1277638823
2126,0.1281408072
2125,0.1283657849
2124,0.1287076473
2123,0.1287925392
2122,0.1291627437
2121,0.1296090782
2120,0.129954651
2119,0.1300438344
2118,0.1304042339
2117,0.1308312416
2116,0.1310236007
2115,0.1312746704
2114,0.1316601634
2113,0.132030189
2112,0.1322194785
2111,0.1325892061
2110,0.1328478307
2109,0.1332139969
2108,0.1336170435
2107,0.1338465065
2106,0.1340062618
2105,0.1344341487
2104,0.1348119527
2103,0.1349612325
2102,0.1352869719
2101,0.1357820779
2100,0.1360317767
2099,0.1364305317
2098,0.1367602497
2097,0.1369843632
2096,0.1373270303
2095,0.1376186907
2094,0.1379964054
2093,0.1383285969
2092,0.1387268454
2091,0.139037773
2090,0.1391360164
2089,0.13973625
2088,0.1400849968
2087,0.1405700147
2086,0.1408846527
2085,0.140997529
2084,0.1413198411
2083,0.1417457759
2082,0.1421295404
2081,0.1426481456
2080,0.1428572834
2079,0.1432217211
2078,0.1436171383
2077,0.1438498497
2076,0.1443157643
2075,0.1447024196
2074,0.1448225826
2073,0.1454379112
2072,0.1457977146
2071,0.1461308151
2070,0.1465197057
2069,0.1470269859
2068,0.1472504288
2067,0.147682175
2066,0.1479537338
2065,0.148381263
2064,0.1488573253
2063,0.1491139233
2062,0.1494675875
2061,0.1498333514
2060,0.1502971351
2059,0.1505924314
2058,0.1509412974
2057,0.1515427232
2056,0.1518081427
2055,0.152327776
2054,0.1524999738
2053,0.1530085802
2052,0.1535295546
2051,0.1536822021
2050,0.1541419923
2049,0.1545524299
2048,0.1550209075
2047,0.1552141607
2046,0.1555807889
2045,0.1561724544
2044,0.1564197987
2043,0.1570311636
2042,0.1574654579
2041,0.1578789055
2040,0.1581468433
2039,0.15856947
2038,0.1590134203
2037,0.1593925804
2036,0.1597454101
2035,0.1601952761
2034,0.1606448591
2033,0.1609707922
2032,0.1613821089
2031,0.1618508101
2030,0.1622034907
2029,0.1626728922
2028,0.1628769487
2027,0.1633167714
2026,0.1638710201
2025,0.1642273515
2024,0.1646902561
2023,0.1650012583
2022,0.165412128
2021,0.1658428758
2020,0.1662685126
2019,0.1667551398
2018,0.1670027226
2017,0.1675369889
2016,0.1679353267
2015,0.1682748795
2014,0.1687696427
2013,0.1689669192
2012,0.1694467068
2011,0.1698987484
2010,0.1703178287
2009,0.1705643982
2008,0.1711219549
2007,0.1713822633
2006,0.1718063951
2005,0.1721745729
2004,0.1726771593
2003,0.1731121987
2002,0.1734540015
2001,0.1737835258
2000,0.174249351
1999,0.1746583432
1998,0.1750399023
1997,0.1753297448
1996,0.1758206934
1995,0.1761934161
1994,0.1765769124
1993,0.1771250963
1992,0.1774880737
1991,0.1777117997
1990,0.1781106144
1989,0.1785782874
1988,0.1788641959
1987,0.1792413741
1986,0.1796281785
1985,0.1799194068
1984,0.1804538071
1983,0.1806953251
1982,0.1811470389
1981,0.1814267933
1980,0.1818443835
1979,0.182277292
1978,0.1827435195
1977,0.1829580963
1976,0.1834513247
1975,0.1836942583
1974,0.1839949936
1973,0.1843902767
1972,0.1847493649
1971,0.1851414889
1970,0.185546428
1969,0.1858970225
1968,0.1861651838
1967,0.1864577681
1966,0.1869505942
1965,0.1873002946
1964,0.1876540929
1963,0.1879146844
1962,0.1882867515
1961,0.1887530386
1960,0.1890090555
1959,0.1893510073
1958,0.1895974278
1957,0.1900915653
1956,0.1903717518
1955,0.1907325685
1954,0.1911229044
1953,0.1912827045
1952,0.1918699145
1951,0.1919978559
1950,0.1924832612
1949,0.1927551627
1948,0.1932558119
1947,0.1935113817
1946,0.1937759072
1945,0.1943380684
1944,0.1944741458
1943,0.194864288
1942,0.1951437294
1941,0.1956639886
1940,0.1959925145
1939,0.1962963641
1938,0.196766451
1937,0.1970918626
1936,0.1974673867
1935,0.1977221817
1934,0.1980995834
1933,0.1986145526
1932,0.1987166852
1931,0.1991977543
1930,0.1994042397
1929,0.1998923421
1928,0.2003851533
1927,0.2006382495
1926,0.2009437531
1925,0.2011874765
1924,0.201843977
1923,0.202077195
1922,0.2020600885
1921,0.2024880052
1920,0.2035159171
1919,0.2037448138
1918,0.2037535906
1917,0.2041857243
1916,0.2046315819
1915,0.2048078924
1914,0.2054445893
1913,0.2057892084
1912,0.2059508413
1911,0.2063723803
1910,0.2069942355
1909,0.2071152478
1908,0.2072312385
1907,0.2075016797
1906,0.2086695135
1905,0.2090210915
1904,0.2089567184
1903,0.2093259394
1902,0.209668532
1901,0.2097226083
1900,0.2105969936
1899,0.2110376358
1898,0.2114385217
1897,0.2116130739
1896,0.2118106633
1895,0.2119941711
1894,0.2125334144
1893,0.212962836
1892,0.2131371051
1891,0.2134828568
1890,0.2140759081
1889,0.2144014835
1888,0.2145696729
1887,0.2149894685
1886,0.2151677907
1885,0.2155433893
1884,0.2159513682
1883,0.2163492739
1882,0.2164721638
1881,0.2168828845
1880,0.2171604633
1879,0.2172939479
1878,0.2175946087
1877,0.2181025445
1876,0.2183567286
1875,0.2182696462
1874,0.2185222208
1873,0.2191410214
1872,0.2194639444
1871,0.2198251635
1870,0.220147565
1869,0.2201943249
1868,0.2207442522
1867,0.2211562246
1866,0.220858857
1865,0.2210793942
1864,0.2215671837
1863,0.2217794508
1862,0.22168383
1861,0.2217270434
1860,0.2222789526
1859,0.2227080464
1858,0.2226097137
1857,0.2229563445
1856,0.2231413275
1855,0.2230271101
1854,0.223543033
1853,0.2239286005
1852,0.2237772048
1851,0.2237218171
1850,0.2237572223
1849,0.223728925
1848,0.2243602276
1847,0.2247851342
1846,0.2245393544
1845,0.2243991196
1844,0.2243941277
1843,0.2242231369
1842,0.224752605
1841,0.224925369
1840,0.2249526531
1839,0.2249196321
1838,0.2247172445
1837,0.2249697745
1836,0.2250771672
1835,0.2252040058
1834,0.2250000685
1833,0.2250241339
1832,0.2248829156
1831,0.2250510454
1830,0.2250136286
1829,0.2250442207
1828,0.2250280529
1827,0.2247694135
1826,0.2250344008
1825,0.2247467339
1824,0.2245152146
1823,0.2246539295
1822,0.2244751155
1821,0.2246494144
1820,0.2244979888
1819,0.2243601382
1818,0.2239951491
1817,0.2239764929
1816,0.2238521278
1815,0.2237904966
1814,0.2234998941
1813,0.2234105617
1812,0.2232938856
1811,0.2230752558
1810,0.2229392081
1809,0.2228096426
1808,0.2225062102
1807,0.2224237323
1806,0.2222737223
1805,0.2219536304
1804,0.2217909247
1803,0.221579209
1802,0.221322313
1801,0.2212887108
1800,0.221023187
1799,0.2207219154
1798,0.2204581201
1797,0.2202379853
1796,0.2200934142
1795,0.2197829038
1794,0.2195465863
1793,0.2192168683
1792,0.2189546376
1791,0.2187184393
1790,0.2184423804
1789,0.2182180882
1788,0.2180416435
1787,0.2176956981
1786,0.2173316926
1785,0.2170381248
1784,0.2167941779
1783,0.2164148539
1782,0.2162079513
1781,0.2159107178
1780,0.2155965418
1779,0.2153117955
1778,0.2149005979
1777,0.2146443576
1776,0.2144327015
1775,0.2140735686
1774,0.2137482762
1773,0.2134332955
1772,0.2131048441
1771,0.2129307091
1770,0.2124473751
1769,0.2121355683
1768,0.2117909342
1767,0.2115802914
1766,0.2111342698
1765,0.2108815312
1764,0.2104969174
1763,0.2102405578
1762,0.209977895
1761,0.2095039934
1760,0.2092233747
1759,0.2089552879
1758,0.2085776925
1757,0.2083185017
1756,0.2079219818
1755,0.2076450884
1754,0.2072876841
1753,0.2069458365
1752,0.2066317052
1751,0.2063551098
1750,0.2059877813
1749,0.2056321651
1748,0.2052717507
1747,0.2049929053
1746,0.2046654671
1745,0.2043397576
1744,0.2039968669
1743,0.2035687715
1742,0.2032882422
1741,0.2029046714
1740,0.2026114911
1739,0.202308923
1738,0.2018644065
1737,0.2016725242
1736,0.2013034672
1735,0.200931102
1734,0.2005116791
1733,0.2001004666
1732,0.1997888386
1731,0.1996013969
1730,0.1990352571
1729,0.198837176
1728,0.1984556317
1727,0.1980668157
1726,0.1977434456
1725,0.1972736567
1724,0.1969446838
1723,0.19657664
1722,0.1962185055
1721,0.1959391087
1720,0.1955586374
1719,0.1950676292
1718,0.1946812272
1717,0.1942758709
1716,0.1939368546
1715,0.1936778128
1714,0.1931684017
1713,0.1928734332
1712,0.1925081462
1711,0.1920611709
1710,0.1917357296
1709,0.1912979037
1708,0.1908872575
1707,0.1905543655
1706,0.1901226789
1705,0.189710319
1704,0.1892539412
1703,0.1887861937
1702,0.1883747876
1701,0.1880650222
1700,0.1876693666
1699,0.1872224063
1698,0.1868306994
1697,0.18637757
1696,0.1860646456
1695,0.1855998933
1694,0.1851403862
1693,0.1848485619
1692,0.1843101382
1691,0.1839216202
1690,0.1835183054
1689,0.1830894351
1688,0.1826256812
1687,0.1823014766
1686,0.1818274558
1685,0.1814128011
1684,0.1810133904
1683,0.180605188
1682,0.1801538765
1681,0.1798051894
1680,0.1793978959
1679,0.1788928807
1678,0.1784971803
1677,0.1781269908
1676,0.1777217835
1675,0.1772861034
1674,0.1768511385
1673,0.1764512211
1672,0.1761453748
1671,0.1756630242
1670,0.1752628833
1669,0.1749332845
1668,0.1744102985
1667,0.1740936339
1666,0.1736984104
1665,0.1732684821
1664,0.1729460657
1663,0.1724052876
1662,0.1720268428
1661,0.1716241986
1660,0.1712603569
1659,0.1708154231
1658,0.1704627275
1657,0.170007512
1656,0.1696059704
1655,0.1692566276
1654,0.168883726
1653,0.1684237123
1652,0.1680102497
1651,0.1676888466
1650,0.1672311574
1649,0.1668504626
1648,0.16642946
1647,0.166046083
1646,0.1657011509
1645,0.1652445942
1644,0.1648764163
1643,0.1644544452
1642,0.1641154885
1641,0.1636937708
1640,0.1632600278
1639,0.162882641
1638,0.1625281572
1637,0.162105307
1636,0.1617604494
1635,0.1614268869
1634,0.1609256119
1633,0.1605439931
1632,0.1601530463
1631,0.1598175019
1630,0.1594098806
1629,0.1591045558
1628,0.1587001681
1627,0.1582970917
1626,0.1580427587
1625,0.1576973051
1624,0.1572719663
1623,0.1568564624
1622,0.1564823985
1621,0.1561989337
1620,0.1558387876
1619,0.1554460675
1618,0.1550861597
1617,0.1547155529
1616,0.1543575525
1615,0.1540907621
1614,0.1537071317
1613,0.1533495188
1612,0.1530336589
1611,0.1526779681
1610,0.152363807
1609,0.1520330906
1608,0.1517418623
1607,0.1513751596
1606,0.1510027945
1605,0.150815919
1604,0.1505959928
1603,0.1501506567
1602,0.149815321
1601,0.1495952755
1600,0.1492939293
1599,0.1490812004
1598,0.1487331688
1597,0.1484639049
1596,0.1482024789
1595,0.1479019821
1594,0.1476241052
1593,0.1473702043
1592,0.1471673399
1591,0.1468770653
1590,0.1466259211
1589,0.146417141
1588,0.1461189687
1587,0.1458460242
1586,0.1457201093
1585,0.1454162002
1584,0.1452343464
1583,0.1449961215
1582,0.1448513865
1581,0.144591108
1580,0.1443276405
1579,0.1441375911
1578,0.1438619643
1577,0.1436899304
1576,0.1434637457
1575,0.1432664692
1574,0.1431172788
1573,0.1429440081
1572,0.1426953077
1571,0.1424634308
1570,0.1423759311
1569,0.1421907991
1568,0.1419212073
1567,0.1417929232
1566,0.1416187137
1565,0.1414308995
1564,0.1412799954
1563,0.1411145926
1562,0.140960142
1561,0.1408092231
1560,0.1406292319
1559,0.1404725164
1558,0.1403223723
1557,0.1401406229
1556,0.1400184184
1555,0.1398016363
1554,0.1396625191
1553,0.1395490915
1552,0.1394292861
1551,0.1392229646
1550,0.1391570568
1549,0.1390427649
1548,0.1388714164
1547,0.1387404203
1546,0.1385932267
1545,0.1384939402
1544,0.1383824944
1543,0.1382724643
1542,0.1380795687
1541,0.137968272
1540,0.1378186047
1539,0.1377900243
1538,0.1376366019
1537,0.137520805
1536,0.1374297142
1535,0.1373354197
1534,0.1372583508
1533,0.1371790767
1532,0.1370363533
1531,0.1369025707
1530,0.1368203461
1529,0.1367291212
1528,0.1366188675
1527,0.1364934891
1526,0.136403814
1525,0.1362953484
1524,0.1362943649
1523,0.1361324787
1522,0.1360731572
1521,0.1359820962
1520,0.1358838677
1519,0.1357882321
1518,0.1357756704
1517,0.1356555521
1516,0.1355733722
1515,0.135511592
1514,0.135390088
1513,0.1353949755
1512,0.1352828741
1511,0.1351905614
1510,0.1351264566
1509,0.1350686252
1508,0.1350277811
1507,0.1349399388
1506,0.13484402
1505,0.1347979754
1504,0.1346921027
1503,0.1347351074
1502,0.1346412748
1501,0.1345211565
1500,0.1344860494
1499,0.1344307214
1498,0.1343938261
1497,0.1343922764
1496,0.1342521906
1495,0.1342109293
1494,0.1342146397
1493,0.1341404617
1492,0.1340742558
1491,0.1339943856
1490,0.1339695454
1489,0.1339260638
1488,0.1338838488
1487,0.1338688731
1486,0.1338025481
1485,0.1336720437
1484,0.1337209344
1483,0.1336455345
1482,0.1336411238
1481,0.1335350424
1480,0.1335221231
1479,0.133520335
1478,0.1334667504
1477,0.1334697753
1476,0.1332898736
1475,0.1333054304
1474,0.1332921684
1473,0.1332999468
1472,0.1332201064
1471,0.1331919283
1470,0.1331359297
1469,0.1330937743
1468,0.1330816001
1467,0.1330813468
1466,0.1329897791
1465,0.1329719573
1464,0.1329304725
1463,0.1329125464
1462,0.1328972876
1461,0.1328422427
1460,0.1328017116
1459,0.1327547282
1458,0.1327527612
1457,0.132723242
1456,0.1326902211
1455,0.1327027529
1454,0.1326555014
1453,0.1325789243
1452,0.132547453
1451,0.1325643361
1450,0.1325770915
1449,0.1324891746
1448,0.1324824989
1447,0.1324460506
1446,0.1324304342
1445,0.1324152648
1444,0.1323848516
1443,0.1323353797
1442,0.1323353797
1441,0.1322878897
1440,0.1322611719
1439,0.1321567893
1438,0.1321855336
1437,0.1322130114
1436,0.132206738
1435,0.1321156919
1434,0.1320791394
1433,0.1320648491
1432,0.1320781559
1431,0.1320658773
1430,0.131973505
1429,0.1319574714
1428,0.1319997013
1427,0.1319331229
1426,0.1318972111
1425,0.131831035
1424,0.1317901909
1423,0.1318341643
1422,0.1317901164
1421,0.1317923218
1420,0.1317481101
1419,0.131700784
1418,0.1317149848
1417,0.1316922605
1416,0.1316264421
1415,0.1317077279
1414,0.1315723956
1413,0.1316062063
1412,0.1315752715
1411,0.131431073
1410,0.1314762682
1409,0.1315033585
1408,0.1314510852
1407,0.1314580888
1406,0.1314522028
1405,0.1314089745
1404,0.1314055026
1403,0.1313743293
1402,0.1313008666
1401,0.131377995
1400,0.131456092
1399,0.131333977
1398,0.1311901361
1397,0.1312419325
1396,0.1313155442
1395,0.1313026547
1394,0.1311516315
1393,0.1311192065
1392,0.1312461048
1391,0.131105721
1390,0.1309920996
1389,0.1309871078
1388,0.1310370415
1387,0.130983144
1386,0.1309368759
1385,0.1309232265
1384,0.1309010834
1383,0.1310459375
1382,0.1311181486
1381,0.1310021132
1380,0.1309760809
1379,0.1308791488
1378,0.1308918148
1377,0.1309338063
1376,0.1308291107
1375,0.1308514625
1374,0.1307319999
1373,0.1306525767
1372,0.1307116747
1371,0.1307005584
1370,0.1306422204
1369,0.1305648685
1368,0.1306042075
1367,0.1305898428
1366,0.1304905415
1365,0.1304410398
1364,0.1304928511
1363,0.1304122061
1362,0.130559206
1361,0.1305585504
1360,0.1304439455
1359,0.1304090321
1358,0.1304174513
1357,0.1303781271
1356,0.1303401142
1355,0.1303098798
1354,0.1303345859
1353,0.1303804368
1352,0.1303126812
1351,0.1302962154
1350,0.1303114593
1349,0.1303044707
1348,0.1302824169
1347,0.1302702874
1346,0.1302466989
1345,0.1302955151
1344,0.1302527189
1343,0.1302277744
1342,0.1302848309
1341,0.1302508563
1340,0.1302670687
1339,0.1302704364
1338,0.1302513182
1337,0.130285278
1336,0.1302641481
1335,0.1302850693
1334,0.1302986294
1333,0.1302481741
1332,0.1302820593
1331,0.1303064227
1330,0.1303576827
1329,0.1303565353
1328,0.1303151548
1327,0.1303340942
1326,0.1303562224
1325,0.1303174645
1324,0.1303536743
1323,0.130380258
1322,0.1303791851
1321,0.1303957105
1320,0.1304403841
1319,0.1304542273
1318,0.1304151416
1317,0.1304800957
1316,0.1305072159
1315,0.1305205673
1314,0.1305563003
1313,0.1306085736
1312,0.1305685788
1311,0.1306252927
1310,0.1306305826
1309,0.1307445168
1308,0.1306903809
1307,0.1307345182
1306,0.1307999641
1305,0.1308652163
1304,0.130880788
1303,0.1309135705
1302,0.1308903098
1301,0.1310240328
1300,0.1310178339
1299,0.1310766041
1298,0.1311213821
1297,0.1311249882
1296,0.1311983764
1295,0.1312826574
1294,0.1313298792
1293,0.1313214302
1292,0.1314119548
1291,0.1314430982
1290,0.1315713823
1289,0.1316542327
1288,0.1315963268
1287,0.1316859275
1286,0.1317554414
1285,0.1318034381
1284,0.1319381148
1283,0.1320085526
1282,0.1320418119
1281,0.1321806163
1280,0.132191956
1279,0.1322609186
1278,0.1323591471
1277,0.1324312389
1276,0.1324830651
1275,0.1325732917
1274,0.1327289045
1273,0.1327786297
1272,0.1328983456
1271,0.1329784244
1270,0.1330326796
1269,0.1332041025
1268,0.1332625747
1267,0.133370325
1266,0.1334668994
1265,0.1335505396
1264,0.1337070912
1263,0.1338161677
1262,0.1338849366
1261,0.1340394318
1260,0.134133026
1259,0.1342648119
1258,0.1344193965
1257,0.1345101446
1256,0.1346493959
1255,0.1347861141
1254,0.1349052936
1253,0.134999454
1252,0.1351971328
1251,0.1353502125
1250,0.135495007
1249,0.1355724931
1248,0.1357373893
1247,0.1358849257
1246,0.1360133588
1245,0.1361973286
1244,0.1363213658
1243,0.1365021616
1242,0.1366765201
1241,0.1367916465
1240,0.1369507164
1239,0.1371168047
1238,0.1373134255
1237,0.1374670118
1236,0.1376252323
1235,0.1377431601
1234,0.1379541606
1233,0.1382030696
1232,0.138353765
1231,0.1385039389
1230,0.1386647522
1229,0.1388990283
1228,0.1391134411
1227,0.1392767131
1226,0.1394523382
1225,0.1396063566
1224,0.1398517191
1223,0.1400586665
1222,0.1403003186
1221,0.1404625028
1220,0.14068681
1219,0.1408663243
1218,0.1411178857
1217,0.1413643211
1216,0.1415859759
1215,0.1417924464
1214,0.1420308053
1213,0.1422483772
1212,0.1425088495
1211,0.1427815855
1210,0.1430093944
1209,0.1432606727
1208,0.1435571909
1207,0.1437981278
1206,0.1440351158
1205,0.1443207562
1204,0.1445432305
1203,0.1448095441
1202,0.1451324821
1201,0.1453943402
1200,0.1456769556
1199,0.1458057463
1198,0.1461129189
1197,0.1463200301
1196,0.1466154009
1195,0.146933198
1194,0.1472618729
1193,0.1475605816
1192,0.1478197873
1191,0.1480962783
1190,0.14840509
1189,0.1487428248
1188,0.1491518468
1187,0.1493672132
1186,0.1496401429
1185,0.1499406397
1184,0.1503287107
1183,0.1506494582
1182,0.1509514451
1181,0.1512376368
1180,0.1515396684
1179,0.1519085318
1178,0.152196005
1177,0.1525354981
1176,0.1528656334
1175,0.1531680822
1174,0.1534936875
1173,0.1538389474
1172,0.1541887224
1171,0.1544739157
1170,0.1547780633
1169,0.1551164687
1168,0.1554599404
1167,0.1557752043
1166,0.1560677737
1165,0.1563772708
1164,0.1567373127
1163,0.1570858955
1162,0.1573763043
1161,0.1576846987
1160,0.1580233127
1159,0.1583705544
1158,0.1587507576
1157,0.1590628177
1156,0.1593697071
1155,0.1597389281
1154,0.1600562334
1153,0.1604240537
1152,0.1607635468
1151,0.1611265689
1150,0.1615010053
1149,0.1618665159
1148,0.1622498631
1147,0.1626285464
1146,0.1630356312
1145,0.1633871347
1144,0.1638465673
1143,0.1643002778
1142,0.1647122204
1141,0.1651576459
1140,0.1655258089
1139,0.1660132706
1138,0.1665429026
1137,0.1669414341
1136,0.1674033105
1135,0.167923972
1134,0.1684285551
1133,0.1689686328
1132,0.1695072502
1131,0.1699838042
1130,0.1704699844
1129,0.1709949821
1128,0.1715672761
1127,0.1720852703
1126,0.1726736128
1125,0.1732069999
1124,0.1737389565
1123,0.1743304729
1122,0.1749024987
1121,0.1754538268
1120,0.1760598719
1119,0.1766419113
1118,0.1771710664
1117,0.1777458638
1116,0.1783511788
1115,0.1788731515
1114,0.1794241816
1113,0.1800674647
1112,0.1806044132
1111,0.1811165959
1110,0.1816872954
1109,0.1822004914
1108,0.1827051938
1107,0.1832738817
1106,0.1837889552
1105,0.1842398345
1104,0.1847572029
1103,0.1851906478
1102,0.1857147664
1101,0.1861191988
1100,0.1865317822
1099,0.1869789064
1098,0.1874162555
1097,0.1877620071
1096,0.188113749
1095,0.1884587109
1094,0.1888139695
1093,0.1891214401
1092,0.1894286275
1091,0.1896987855
1090,0.189911142
1089,0.1901919395
1088,0.190496847
1087,0.190689072
1086,0.1909178644
1085,0.1910843551
1084,0.1912847161
1083,0.191478014
1082,0.191633299
1081,0.1918522269
1080,0.1919790059
1079,0.192125991
1078,0.1923471987
1077,0.1924651265
1076,0.1926607192
1075,0.1927703768
1074,0.1929510087
1073,0.1931726038
1072,0.1932969242
1071,0.1935811043
1070,0.1937538236
1069,0.1939420402
1068,0.1941595227
1067,0.1944268048
1066,0.1946968734
1065,0.1948831528
1064,0.1951239407
1063,0.195443809
1062,0.1957408041
1061,0.1960297525
1060,0.1963060498
1059,0.1966166943
1058,0.1969307065
1057,0.1973120123
1056,0.1976839453
1055,0.1979718208
1054,0.198339656
1053,0.1987250298
1052,0.1990991533
1051,0.1994915605
1050,0.1999504715
1049,0.2002841085
1048,0.2006196827
1047,0.2010744065
1046,0.2014124393
1045,0.2018354833
1044,0.2021898329
1043,0.2025057077
1042,0.2028957903
1041,0.2032503784
1040,0.2035515606
1039,0.2038515955
1038,0.2041377574
1037,0.2044294029
1036,0.2047630101
1035,0.2049572617
1034,0.2051645815
1033,0.2054224908
1032,0.2055526525
1031,0.2057554424
1030,0.2059126645
1029,0.2060292959
1028,0.2060531378
1027,0.2061940581
1026,0.206287086
1025,0.2063904107
1024,0.2063354999
1023,0.2063005716
1022,0.2063509822
1021,0.2063065618
1020,0.2062086761
1019,0.2061344385
1018,0.2060391605
1017,0.2059152424
1016,0.205826506
1015,0.205697462
1014,0.2055438459
1013,0.2052971721
1012,0.205183357
1011,0.2050671577
1010,0.2048252672
1009,0.2045749873
1008,0.2043705434
1007,0.2041676641
1006,0.203964442
1005,0.2037438601
1004,0.2034897357
1003,0.2031971067
1002,0.2029999644
1001,0.2026830167
1000,0.2024462223
999,0.2021657974
998,0.201831907
997,0.2015466094
996,0.2012884915
995,0.2009892762
994,0.2006580979
993,0.2003082037
992,0.1998886615
991,0.1995936483
990,0.1992537826
989,0.1988274753
988,0.1985467523
987,0.1981196702
986,0.1978319883
985,0.1973842829
984,0.1970298737
983,0.1966174245
982,0.196271345
981,0.1958807856
980,0.1956100166
979,0.1951724142
978,0.1949168742
977,0.1944527626
976,0.1941637695
975,0.1937815249
974,0.1934860796
973,0.1931930333
972,0.1928532571
971,0.1924366504
970,0.192170918
969,0.1918761432
968,0.1914899647
967,0.1912460327
966,0.1910285652
965,0.1907560974
964,0.1904428303
963,0.1901686043
962,0.1898087412
961,0.1895315051
960,0.1893099695
959,0.1890370548
958,0.1887833029
957,0.1884369701
956,0.188149482
955,0.1878635287
954,0.1875895709
953,0.1872798502
952,0.1868793815
951,0.1866265237
950,0.1862887442
949,0.1859559268
948,0.1854997724
947,0.1852024347
946,0.1848586202
945,0.1846396625
944,0.1841296256
943,0.1836505979
942,0.183335349
941,0.1829978675
940,0.1826888323
939,0.1822676808
938,0.1819033623
937,0.1814730614
936,0.1811883748
935,0.1807184815
934,0.1803763956
933,0.1800201237
932,0.1794872284
931,0.1792330146
930,0.1788727194
929,0.1785090417
928,0.1780095547
927,0.1776363105
926,0.1771356463
925,0.1768900305
924,0.1763865203
923,0.176028192
922,0.1756575108
921,0.1751139313
920,0.1749387383
919,0.1744217873
918,0.1740178466
917,0.1736531556
916,0.1731635779
915,0.172868669
914,0.1725856662
913,0.1720576882
912,0.1716952175
911,0.1712070256
910,0.1710174084
909,0.1705453396
908,0.170053184
907,0.1697490662
906,0.1693157256
905,0.1688840687
904,0.1686664522
903,0.1682969928
902,0.1677811444
901,0.1675637662
900,0.1672649086
899,0.169061318
898,0.1611983031
897,0.1679993123
896,0.1713230759
895,0.165665403
894,0.1673448831
893,0.1633870602
892,0.16723755
891,0.1576723009
890,0.1696136147
889,0.1681183577
888,0.1711846888
887,0.1624046266
886,0.1679625064
885,0.1628822237
884,0.1660481244
883,0.1683853716
882,0.1674544662
881,0.1631252319
880,0.1657849699
879,0.1655395627
878,0.1647197157
877,0.1651479155
876,0.163625285
875,0.1634558737
874,0.1638411283
873,0.1632765383
872,0.1631724238
871,0.1664472371
870,0.1622051895
869,0.1605684608
868,0.1617229581
867,0.1600366533
866,0.1606305391
865,0.1594799757
864,0.1602524668
863,0.1607906073
862,0.1602774113
861,0.1616924852
860,0.1588815153
859,0.159989208
858,0.1600010693
857,0.1605720073
856,0.1593486071
855,0.1572336257
854,0.1584783345
853,0.1589966565
852,0.1596610844
851,0.1582913995
850,0.1588853598
849,0.1586373895
848,0.1583710015
847,0.1581130177
846,0.1581685245
845,0.1583527029
844,0.1588431895
843,0.1579001993
842,0.1580391526
841,0.1581521779
840,0.1578357518
839,0.1578627378
838,0.1588525474
837,0.15800488
836,0.1579573303
835,0.1577468812
834,0.1580552012
833,0.1579310298
832,0.1585933864
831,0.1584168226
830,0.1584966779
829,0.1586955786
828,0.1585211158
827,0.1583284438
826,0.1586274356
825,0.1584161073
824,0.1586292982
823,0.1589974463
822,0.1594790518
821,0.1590441912
820,0.1595959663
819,0.1595099121
818,0.1601260304
817,0.1601101607
816,0.1602504849
815,0.1604101509
814,0.1602657288
813,0.1603386998
812,0.1609001458
811,0.1612559706
810,0.1617949307
809,0.1617435366
808,0.1619996727
807,0.1624712944
806,0.1623324305
805,0.1621238142
804,0.1626202315
803,0.1631537676
802,0.1630946398
801,0.1638816744
800,0.1635098457
799,0.1638442576
798,0.1641861796
797,0.1645748317
796,0.1647088528
795,0.1650808007
794,0.1650897264
793,0.1651513278
792,0.1652478874
791,0.1660093516
790,0.1660627425
789,0.166490823
788,0.1664912403
787,0.1669264138
786,0.1669128835
785,0.1670961231
784,0.1676720232
783,0.1674255729
782,0.1679926813
781,0.1679591835
780,0.1685877889
779,0.168775022
778,0.1689503789
777,0.1690871865
776,0.1698223799
775,0.1698812097
774,0.1702669114
773,0.1705269367
772,0.171048224
771,0.1713248044
770,0.1719830334
769,0.1724147648
768,0.1724928468
767,0.173275128
766,0.1733933836
765,0.1740695089
764,0.1747862697
763,0.1752843857
762,0.1756714731
761,0.1762647629
760,0.1770033985
759,0.1775054783
758,0.1778466403
757,0.1786547452
756,0.1789291054
755,0.1796188951
754,0.1800890565
753,0.180253163
752,0.1806164533
751,0.1813099086
750,0.1820739508
749,0.1823328286
748,0.1825402379
747,0.1828828752
746,0.1832602918
745,0.1833865494
744,0.1837125272
743,0.1840749979
742,0.1841650605
741,0.1845506877
740,0.1848531216
739,0.1847803742
738,0.1846379489
737,0.1850884408
736,0.1851297915
735,0.1853184253
734,0.1852328777
733,0.1851898283
732,0.1852893233
731,0.1854447722
730,0.185328424
729,0.1857249588
728,0.1856027097
727,0.1855206341
726,0.1857423186
725,0.1859426498
724,0.1863125563
723,0.1859418601
722,0.1860746294
721,0.1865843982
720,0.1864490956
719,0.1866636872
718,0.1868472546
717,0.1869441122
716,0.186977759
715,0.1874175221
714,0.187544927
713,0.1877643317
712,0.1880062222
711,0.1881317645
710,0.1883081645
709,0.1886226237
708,0.18866238
707,0.1888384074
706,0.1890093833
705,0.1890238523
704,0.1888539195
703,0.1889853328
702,0.1893214136
701,0.1891693324
700,0.1891447604
699,0.1892490536
698,0.1893096119
697,0.189025104
696,0.1890265793
695,0.1889639795
694,0.1889532954
693,0.1886024028
692,0.1886397302
691,0.1884327829
690,0.1882828474
689,0.1880054623
688,0.1878435016
687,0.1874805093
686,0.1873895973
685,0.1873101741
684,0.1870148629
683,0.1869312078
682,0.1866701394
681,0.1865371913
680,0.1863527149
679,0.1863299757
678,0.1859453619
677,0.18584162
676,0.1858395189
675,0.1854836941
674,0.1854368448
673,0.1852233261
672,0.1850923747
671,0.1848643273
670,0.1845780015
669,0.18433851
668,0.1842309684
667,0.1839456558
666,0.1837930232
665,0.1836647838
664,0.1834901422
663,0.1832871437
662,0.1832960993
661,0.1831267774
660,0.1830218136
659,0.1827877909
658,0.1827321649
657,0.1824994385
656,0.1824498773
655,0.1822737455
654,0.1821146905
653,0.1821429282
652,0.1818323731
651,0.1818003953
650,0.1817903966
649,0.1815895289
648,0.1813413054
647,0.1815034598
646,0.1812624335
645,0.1810335368
644,0.1809575111
643,0.1809458882
642,0.180763185
641,0.1803301722
640,0.1802839339
639,0.1802167892
638,0.1801447868
637,0.1799307168
636,0.179871738
635,0.1796370149
634,0.179559201
633,0.1793743074
632,0.1792010963
631,0.1791851074
630,0.179025501
629,0.1789972782
628,0.1788746268
627,0.1787083894
626,0.1787386537
625,0.178684473
624,0.1785144359
623,0.1783727258
622,0.1784009784
621,0.1784286946
620,0.1781732291
619,0.178149581
618,0.1781351119
617,0.1780969203
616,0.1780316681
615,0.178347826
614,0.1782337874
613,0.1782812029
612,0.1782393306
611,0.1783871651
610,0.1784616113
609,0.1786764264
608,0.1787209958
607,0.1787106097
606,0.178963542
605,0.179023236
604,0.1794437468
603,0.179571569
602,0.1798322946
601,0.1803010404
600,0.1802680939
599,0.1806645542
598,0.1807626337
597,0.1810913831
596,0.1812182665
595,0.1815999895
594,0.181933701
593,0.182121858
592,0.1822635084
591,0.1824517995
590,0.1826444864
589,0.1828493476
588,0.1830171943
587,0.1830403954
586,0.1832668483
585,0.1832340062
584,0.1834221333
583,0.1834745407
582,0.1836355478
581,0.1835445315
580,0.183532089
579,0.1838024259
578,0.183847338
577,0.1840459704
576,0.1842278391
575,0.1844980717
574,0.1848660707
573,0.1850372702
572,0.1853114814
571,0.1856240183
570,0.1861464977
569,0.1865053773
568,0.1871007234
567,0.1873940974
566,0.1880193502
565,0.1884729266
564,0.188745603
563,0.1894483715
562,0.1898667663
561,0.1904302686
560,0.1908300519
559,0.1912162006
558,0.1915767491
557,0.1919776797
556,0.1920140088
555,0.1921753436
554,0.1925378293
553,0.1926006973
552,0.1925408095
551,0.1924573779
550,0.1923232079
549,0.1924047172
548,0.1921366751
547,0.1918866932
546,0.191689834
545,0.1914850175
544,0.1914406121
543,0.1912942529
542,0.1913873106
541,0.1911961883
540,0.1913199425
539,0.1915725321
538,0.1917811781
537,0.1919984967
536,0.1920673698
535,0.1926605999
534,0.1928061694
533,0.1933833063
532,0.1936271936
531,0.1942543238
530,0.1944572181
529,0.1949050426
528,0.1952157468
527,0.1957869679
526,0.1961764991
525,0.1966393739
524,0.1971052587
523,0.1968296468
522,0.197078824
521,0.1972458959
520,0.1974617243
519,0.1975028813
518,0.1974205673
517,0.1973834634
516,0.1975482851
515,0.1976882368
514,0.1974272132
513,0.1975723952
512,0.1979574561
511,0.1979680657
510,0.1980548054
509,0.1984288841
508,0.1988170743
507,0.1990300119
506,0.1991656125
505,0.1995685548
504,0.1998473108
503,0.2005249113
502,0.2010188401
501,0.201550886
500,0.2020774484
499,0.2027224004
498,0.2034694254
497,0.2039169669
496,0.2043813169
495,0.2049658895
494,0.2053362131
493,0.2058013082
492,0.2058396488
491,0.2059013546
490,0.2060683221
489,0.2058305442
488,0.2054461241
487,0.2053662837
486,0.204861328
485,0.2045649588
484,0.204349786
483,0.2038870752
482,0.2036209852
481,0.2035570294
480,0.2034596652
479,0.2036381513
478,0.2036829144
477,0.2040399313
476,0.2042667121
475,0.2046664208
474,0.2050690651
473,0.2057314962
472,0.2064210624
471,0.2070915252
470,0.2076617479
469,0.2081720233
468,0.208684653
467,0.2090345472
466,0.2092577368
465,0.2090414912
464,0.2090248168
463,0.2088283747
462,0.20882532
461,0.2082676888
460,0.2077431083
459,0.2073407173
458,0.2070140094
457,0.2069161236
456,0.2066838294
455,0.2067506164
454,0.2064021975
453,0.2067016214
452,0.206897229
451,0.2072950304
450,0.207447052
449,0.2077406794
448,0.2082822472
447,0.2088643759
446,0.2092230022
445,0.2096278816
444,0.2098985165
443,0.2106871903
442,0.2109756023
441,0.2112355977
440,0.211639151
439,0.2120373994
438,0.2119739205
437,0.212287426
436,0.2127186209
435,0.2128741592
434,0.212983802
433,0.2134459019
432,0.2134738714
431,0.2138307691
430,0.2143279165
429,0.2145229727
428,0.2151859701
427,0.2156254202
426,0.2158468366
425,0.2164595872
424,0.2169887125
423,0.2174444646
422,0.2181372344
421,0.2183307558
420,0.2189428061
419,0.2190957516
418,0.218874976
417,0.2191512734
416,0.2194283754
415,0.2194219828
414,0.2197648734
413,0.2198351175
412,0.2200661302
411,0.220382005
410,0.2203573734
409,0.221309945
408,0.2216630429
407,0.2222773582
406,0.2228167355
405,0.2235017568
404,0.2242114991
403,0.2249692082
402,0.2256714851
401,0.2262113839
400,0.2268898338
399,0.2275281996
398,0.2276995778
397,0.2283426076
396,0.2285623699
395,0.2286138982
394,0.2291443199
393,0.2295281291
392,0.2295298427
391,0.2295685261
390,0.2300874144
389,0.230898872
388,0.2311996371
387,0.231512785
386,0.2324433923
385,0.232867375
384,0.2334769815
383,0.2342186272
382,0.2348465323
381,0.2355265915
380,0.2362597585
379,0.2371897548
378,0.2378994524
377,0.2387558967
376,0.23981525
375,0.2402411401
374,0.2412773818
373,0.242685914
372,0.2431336194
371,0.2436373085
370,0.2446279973
369,0.24529773
368,0.2454483956
367,0.2461711913
366,0.2465709299
365,0.2472777069
364,0.247995317
363,0.2479347438
362,0.248824358
361,0.2494572848
360,0.2501203418
359,0.2507159412
358,0.2523062229
357,0.2532338202
356,0.2548529208
355,0.2559129298
354,0.2568713725
353,0.2577459216
352,0.2589256465
351,0.2602216899
350,0.2604284286
349,0.2600484788
348,0.2606501579
347,0.2607043684
346,0.2616122663
345,0.2641966045
344,0.2643224597
343,0.264149487
342,0.2659263015
341,0.2668352127
340,0.2679449916
339,0.2690009773
338,0.2699711919
337,0.2716650665
336,0.2723045945
335,0.2747242153
334,0.2747623026
333,0.2756778896
332,0.2772620618
331,0.2781685889
330,0.279222548
329,0.2805125415
328,0.2815980911
327,0.2827174962
326,0.2840762734
325,0.2863740325
324,0.2865383327
323,0.2883393764
322,0.2900697291
321,0.2923957109
320,0.2940177023
319,0.2958264351
318,0.2973771989
317,0.2990521193
316,0.3005824387
315,0.3024226129
314,0.3047702014
313,0.3065364361
312,0.3086358607
311,0.3098726571
310,0.3120337129
309,0.3139363527
308,0.3160070479
307,0.3191890419
306,0.3206513226
305,0.3239256442
304,0.3262573779
303,0.3281033039
302,0.3308713734
301,0.332793951
300,0.3355233073
299,0.3375368118
298,0.3406110704
297,0.3422382176
296,0.3440820873
295,0.347060889
294,0.3502556682
293,0.3531858623
292,0.3556967378
291,0.3582347035
290,0.361272037
289,0.3639021814
288,0.3667213917
287,0.3693101108
286,0.3720817268
285,0.3744384348
284,0.3766217232
283,0.3786668479
282,0.3813406527
281,0.3831157982
280,0.3850523233
279,0.3866845965
278,0.3880942464
277,0.3909639418
276,0.391105324
275,0.3929263949
274,0.3938578367
273,0.3947729766
272,0.394467324
271,0.3951963186
270,0.3954862356
269,0.3951191008
268,0.3954960704
267,0.3950174451
266,0.3939661384
265,0.3935970962
264,0.3932245374
263,0.3921028376
262,0.3912519217
261,0.3897238076
260,0.3887619376
259,0.3871696889
258,0.3852805793
257,0.3835287094
256,0.382263571
255,0.3804443777
254,0.3785845339
253,0.3756117821
252,0.373562634
251,0.3710581362
250,0.3680308461
249,0.365683198
248,0.3621917367
247,0.3587096632
246,0.3547163904
245,0.351362437
244,0.3469060063
243,0.343338877
242,0.3397008479
241,0.3356837034
240,0.3321376443
239,0.3287244141
238,0.3248620331
237,0.3217167854
236,0.3184897602
235,0.3159766197
234,0.3135582507
233,0.3108915985
232,0.3086268008
231,0.3069305718
230,0.3046348095
229,0.3032643199
228,0.3016183972
227,0.3013651371
226,0.3008635938
225,0.3018198311
224,0.304128021
223,0.308062166
222,0.3131166995
221,0.3204493523
220,0.3309046924
219,0.3435781598
218,0.3584481776
217,0.3768489361
216,0.3967472017
215,0.4197854996
214,0.442776531
213,0.4662425518
212,0.4894138873
211,0.5110224485
210,0.5308389664
209,0.5484409332
208,0.5626511574
207,0.5712807178
206,0.5784593225
205,0.5800138116
204,0.5799517632
203,0.5761091113
202,0.5701354146
201,0.5616852641
200,0.5506099463
