Dodecane_KIT_N2_C
Wavelength (nm),Abs
2655,0.07664482296
2654,0.07668790221
2653,0.07789710909
2652,0.07819447666
2651,0.07784238458
2650,0.07816366851
2649,0.07829196006
2648,0.07843926549
2647,0.07794115692
2646,0.07992485911
2645,0.08044248074
2644,0.07863476127
2643,0.07872148603
2642,0.07875531167
2641,0.07839699835
2640,0.07881433517
2639,0.07943185419
2638,0.07795763016
2637,0.0793498978
2636,0.07760174572
2635,0.07681436837
2634,0.07660350204
2633,0.07898358256
2632,0.0761051476
2631,0.07299420238
2630,0.07991630584
2629,0.07883618772
2628,0.07741626352
2627,0.07851012796
2626,0.08105845004
2625,0.07926976681
2624,0.07858695835
2623,0.07869200408
2622,0.07769162953
2621,0.0745607987
2620,0.07732056081
2619,0.07889814675
2618,0.07685008645
2617,0.07477731258
2616,0.07957820594
2615,0.0790842548
2614,0.07795546204
2613,0.07974728197
2612,0.07934334129
2611,0.0782552585
2610,0.07774296403
2609,0.07925798744
2608,0.07925827056
2607,0.07826669514
2606,0.07900357991
2605,0.08192948997
2604,0.07961595803
2603,0.07859173417
2602,0.07718049735
2601,0.0789995715
2600,0.07964481413
2599,0.07876937091
2598,0.07849027961
2597,0.07714057714
2596,0.07178591192
2595,0.07494804263
2594,0.07963965088
2593,0.07986742258
2592,0.08015427738
2591,0.07883376628
2590,0.07779826224
2589,0.0768636167
2588,0.07870355248
2587,0.08266650885
2586,0.07894647866
2585,0.07633132488
2584,0.08008398861
2583,0.08062909544
2582,0.07913602889
2581,0.07966169715
2580,0.08019631356
2579,0.07941544056
2578,0.07928610593
2577,0.08111644536
2576,0.08147435635
2575,0.08051161468
2574,0.08074405789
2573,0.08122882247
2572,0.0798118934
2571,0.0797958374
2570,0.07965131104
2569,0.0797592625
2568,0.07987184078
2567,0.08037385345
2566,0.07909227163
2565,0.08001576364
2564,0.07851658016
2563,0.07790222019
2562,0.07779797912
2561,0.08031215519
2560,0.08127585799
2559,0.08088009804
2558,0.08085739613
2557,0.08004974574
2556,0.08075103909
2555,0.08058805019
2554,0.0802846849
2553,0.07993192226
2552,0.07989897579
2551,0.08051288873
2550,0.0809295252
2549,0.08068202436
2548,0.08025699854
2547,0.08061563224
2546,0.08064386994
2545,0.08102703094
2544,0.08066222817
2543,0.08033607155
2542,0.08074972779
2541,0.08069866896
2540,0.08086515963
2539,0.08103523403
2538,0.08091985434
2537,0.08009152114
2536,0.08028315753
2535,0.0808159858
2534,0.08100625873
2533,0.08013217896
2532,0.0802328065
2531,0.08060883731
2530,0.08078546077
2529,0.08124919981
2528,0.08122526109
2527,0.08133348078
2526,0.08138886094
2525,0.08134112507
2524,0.08156105131
2523,0.08162802458
2522,0.08112368733
2521,0.08185677975
2520,0.08139129728
2519,0.08148163557
2518,0.08146914095
2517,0.0812972039
2516,0.08139932156
2515,0.08162683249
2514,0.08173893392
2513,0.08163464814
2512,0.08153303713
2511,0.08167094737
2510,0.08192636073
2509,0.08174405992
2508,0.08178080618
2507,0.08192026615
2506,0.08175593615
2505,0.08137275279
2504,0.08165635914
2503,0.08207897097
2502,0.08212284744
2501,0.08196118474
2500,0.08233944327
2499,0.08213360608
2498,0.08220460266
2497,0.08236528933
2496,0.08200051636
2495,0.08206564933
2494,0.08188763261
2493,0.08246900141
2492,0.08228568733
2491,0.08238591254
2490,0.08251858503
2489,0.08216231316
2488,0.0824759528
2487,0.08253902197
2486,0.08253057301
2485,0.08272181451
2484,0.0829224214
2483,0.08278379589
2482,0.08255007118
2481,0.08266153187
2480,0.08256794512
2479,0.08266848326
2478,0.08277587593
2477,0.08291784674
2476,0.08287742734
2475,0.08271940053
2474,0.08267389983
2473,0.08282510936
2472,0.08316013962
2471,0.08320299536
2470,0.08331122994
2469,0.08290101588
2468,0.08303259313
2467,0.08338145167
2466,0.08321079612
2465,0.083142519
2464,0.08354480565
2463,0.08340438455
2462,0.08327495307
2461,0.08358412236
2460,0.0834788233
2459,0.08356247097
2458,0.0833902359
2457,0.0833703205
2456,0.08353338391
2455,0.08375237882
2454,0.083790645
2453,0.08373360336
2452,0.08390795439
2451,0.08387693018
2450,0.08373831213
2449,0.08374138921
2448,0.08398373425
2447,0.08394381404
2446,0.08396878839
2445,0.08425742388
2444,0.08440509439
2443,0.0840511471
2442,0.08436159045
2441,0.08426810801
2440,0.084153153
2439,0.08436510712
2438,0.08452926576
2437,0.08426072448
2436,0.08434929699
2435,0.0847838223
2434,0.08437532187
2433,0.0845927
2432,0.0848012194
2431,0.0846228078
2430,0.08474684507
2429,0.08489830792
2428,0.08488418162
2427,0.08470761776
2426,0.08501191437
2425,0.08523679525
2424,0.08486526459
2423,0.08511821926
2422,0.08522788435
2421,0.08490035683
2420,0.08544615656
2419,0.08528868109
2418,0.08514753729
2417,0.08551247418
2416,0.08551955968
2415,0.08525623381
2414,0.08558960259
2413,0.0856025964
2412,0.08539829403
2411,0.08561955392
2410,0.08592708409
2409,0.08559133857
2408,0.08584200591
2407,0.08618289977
2406,0.08568920195
2405,0.08602010459
2404,0.08618892729
2403,0.08603490144
2402,0.0861396566
2401,0.08630098403
2400,0.08610979468
2399,0.08626201749
2398,0.08657967299
2397,0.08647158742
2396,0.08630839735
2395,0.08687564731
2394,0.08675213158
2393,0.0866311416
2392,0.08696301281
2391,0.08680618554
2390,0.08671896905
2389,0.08723691106
2388,0.08706669509
2387,0.08690615743
2386,0.0872528553
2385,0.08734742552
2384,0.08723244816
2383,0.08739509434
2382,0.08744486421
2381,0.08739386499
2380,0.08759704977
2379,0.08788363636
2378,0.08764306456
2377,0.08777304739
2376,0.0879797712
2375,0.08809298277
2374,0.08790160716
2373,0.08832482249
2372,0.08841768652
2371,0.08804798871
2370,0.08827308565
2369,0.08839690685
2368,0.08862040192
2367,0.08848128468
2366,0.08859751374
2365,0.08884862065
2364,0.08866795897
2363,0.0887561962
2362,0.08909503371
2361,0.08907927573
2360,0.08910358697
2359,0.08922917396
2358,0.08943337202
2357,0.08934111893
2356,0.08938194811
2355,0.08961349726
2354,0.08959341794
2353,0.08962965757
2352,0.08983704448
2351,0.08990867436
2350,0.09002608806
2349,0.09020922333
2348,0.09024497122
2347,0.09041503817
2346,0.0902371332
2345,0.09035874903
2344,0.09078060091
2343,0.09068336338
2342,0.09062739462
2341,0.09100159258
2340,0.09083104134
2339,0.09085603058
2338,0.09125801921
2337,0.09130560607
2336,0.09128018469
2335,0.09127679467
2334,0.091463916
2333,0.09161358327
2332,0.09150504321
2331,0.09176348895
2330,0.09198952466
2329,0.09196460247
2328,0.09194163978
2327,0.09217596054
2326,0.09248691797
2325,0.09221750498
2324,0.09232141823
2323,0.09273204207
2322,0.0925341323
2321,0.09275983274
2320,0.09301745892
2319,0.0930775255
2318,0.09314572066
2317,0.09316509962
2316,0.09329908341
2315,0.09366711229
2314,0.093492724
2313,0.09347259253
2312,0.09395130724
2311,0.09384150803
2310,0.09400732815
2309,0.09422826767
2308,0.09437895566
2307,0.09432722628
2306,0.09450900555
2305,0.09447836876
2304,0.09492366761
2303,0.09497816861
2302,0.09510965645
2301,0.09503094107
2300,0.09542826563
2299,0.09528443962
2298,0.09538476914
2297,0.09544107318
2296,0.0956806466
2295,0.09564966708
2294,0.09584416449
2293,0.09593249112
2292,0.09628104419
2291,0.09592135251
2290,0.09642016143
2289,0.09690013528
2288,0.09662461281
2287,0.09662008286
2286,0.0964897871
2285,0.09704207629
2284,0.09735485911
2283,0.09752121568
2282,0.09722521901
2281,0.09752176702
2280,0.09797162563
2279,0.09762404114
2278,0.09824235737
2277,0.09777925164
2276,0.09834649414
2275,0.09848877788
2274,0.09843236953
2273,0.09858982265
2272,0.09922747314
2271,0.09903402627
2270,0.0988015011
2269,0.09924799949
2268,0.09950000048
2267,0.09980367869
2266,0.09963520616
2265,0.09958014637
2264,0.09998443723
2263,0.1001545712
2262,0.1006084383
2261,0.1003610119
2260,0.1004797518
2259,0.1010817662
2258,0.1010437682
2257,0.1012609601
2256,0.1009012684
2255,0.101072751
2254,0.1016136631
2253,0.1018517241
2252,0.1015235856
2251,0.102007404
2250,0.1024310291
2249,0.1021252796
2248,0.1025405303
2247,0.1026786864
2246,0.1030136719
2245,0.1032935753
2244,0.1030725092
2243,0.1032069996
2242,0.1033773199
2241,0.1036823392
2240,0.1039471924
2239,0.1040587872
2238,0.1038917452
2237,0.10445337
2236,0.1046711206
2235,0.1047638282
2234,0.104773812
2233,0.1049483046
2232,0.1050841659
2231,0.1055892631
2230,0.1056061983
2229,0.1055231169
2228,0.1057062
2227,0.106193088
2226,0.1064947322
2225,0.1064222306
2224,0.1064930782
2223,0.1069192514
2222,0.1071603373
2221,0.1074992567
2220,0.1075825244
2219,0.1075998023
2218,0.1079164967
2217,0.10810332
2216,0.1082846746
2215,0.1084947214
2214,0.1087880284
2213,0.109193787
2212,0.1091812402
2211,0.1095439941
2210,0.1096348166
2209,0.1096154898
2208,0.1098534167
2207,0.1103846505
2206,0.1106127128
2205,0.1108811572
2204,0.1108841598
2203,0.1111299992
2202,0.1113812327
2201,0.1116710752
2200,0.1114979684
2199,0.1116074771
2198,0.1118804887
2197,0.1120832637
2196,0.1123570725
2195,0.1126288474
2194,0.1127608493
2193,0.1128517091
2192,0.112877354
2191,0.1131592244
2190,0.1136961728
2189,0.1137871966
2188,0.1138877198
2187,0.1141694412
2186,0.1141109318
2185,0.1147460714
2184,0.1146658435
2183,0.1149640903
2182,0.1150932014
2181,0.115125455
2180,0.1154329702
2179,0.1159873754
2178,0.1160751879
2177,0.1163776889
2176,0.1163569838
2175,0.1167954206
2174,0.1168601587
2173,0.1173095554
2172,0.1176466495
2171,0.1176738366
2170,0.1178259552
2169,0.1180831641
2168,0.1182952821
2167,0.1187207475
2166,0.118979238
2165,0.1192385256
2164,0.1194470897
2163,0.1193687767
2162,0.1198357195
2161,0.1201516017
2160,0.1202817112
2159,0.1207052991
2158,0.1208831072
2157,0.1210547239
2156,0.1211285517
2155,0.1215292737
2154,0.1216673702
2153,0.1219173372
2152,0.1222890392
2151,0.1223797798
2150,0.1226874664
2149,0.1231589839
2148,0.1233593225
2147,0.1235113889
2146,0.1238639355
2145,0.123926051
2144,0.1243200526
2143,0.1244338751
2142,0.1249037758
2141,0.1252617091
2140,0.1254489273
2139,0.1257474124
2138,0.1259908825
2137,0.1261224002
2136,0.126340732
2135,0.1266269833
2134,0.1270733178
2133,0.127215445
2132,0.1274495274
2131,0.1277404726
2130,0.1278338581
2129,0.1281457692
2128,0.1285766214
2127,0.1287827492
2126,0.129284814
2125,0.1294489056
2124,0.1296716034
2123,0.1300911456
2122,0.1300873011
2121,0.130575642
2120,0.1309052855
2119,0.1311657727
2118,0.1315093488
2117,0.1318523288
2116,0.1321857721
2115,0.1323252022
2114,0.1326664984
2113,0.132961452
2112,0.1331954896
2111,0.1335781366
2110,0.1339437217
2109,0.1341788918
2108,0.1346279681
2107,0.1348857582
2106,0.1350816637
2105,0.1354396641
2104,0.1358456016
2103,0.1359703839
2102,0.1363920122
2101,0.1369484514
2100,0.1370466799
2099,0.1374284029
2098,0.1376918703
2097,0.1381029785
2096,0.1384419799
2095,0.1387408078
2094,0.1391560882
2093,0.1393705457
2092,0.1397407502
2091,0.1401461959
2090,0.1404359937
2089,0.1408376545
2088,0.1409967393
2087,0.1415855139
2086,0.1418476701
2085,0.1421859115
2084,0.1424825788
2083,0.1429582685
2082,0.1433470994
2081,0.1437128484
2080,0.1439253092
2079,0.1443463713
2078,0.1446233243
2077,0.145067364
2076,0.1454261392
2075,0.1456389129
2074,0.1461014599
2073,0.1464668959
2072,0.1469267011
2071,0.1472891569
2070,0.1474792063
2069,0.1480402797
2068,0.1485174298
2067,0.1488223225
2066,0.1490926892
2065,0.1495186538
2064,0.1500074416
2063,0.1502870619
2062,0.1506466269
2061,0.1510670781
2060,0.1514243484
2059,0.1518164724
2058,0.1522068232
2057,0.1526241004
2056,0.1528676301
2055,0.1534646451
2054,0.1536999047
2053,0.1542285234
2052,0.1547063142
2051,0.1548452377
2050,0.1553417295
2049,0.155603379
2048,0.1561769396
2047,0.1564676017
2046,0.1568672657
2045,0.1574005187
2044,0.1577644646
2043,0.1581240445
2042,0.1586019546
2041,0.1591368169
2040,0.1592725068
2039,0.1599846482
2038,0.1601958275
2037,0.1606148332
2036,0.1609639674
2035,0.1613832265
2034,0.1617932022
2033,0.1621960104
2032,0.1625962853
2031,0.1631097049
2030,0.1634088159
2029,0.1638125479
2028,0.1642397046
2027,0.1646982729
2026,0.1651383489
2025,0.1653437465
2024,0.1659958959
2023,0.1663407534
2022,0.166674763
2021,0.167105332
2020,0.167530477
2019,0.16796121
2018,0.1682627201
2017,0.1687973142
2016,0.1692891121
2015,0.1696250588
2014,0.1700539887
2013,0.1703567654
2012,0.1707283258
2011,0.1713016778
2010,0.1716231257
2009,0.1719564497
2008,0.1723577827
2007,0.1727488935
2006,0.1730680466
2005,0.1735844761
2004,0.1740231812
2003,0.1743889451
2002,0.1747281253
2001,0.1751431078
2000,0.1755407751
1999,0.1759823412
1998,0.1762631834
1997,0.1768531948
1996,0.1771962792
1995,0.1775823832
1994,0.1779571772
1993,0.1785736382
1992,0.178874284
1991,0.1792074293
1990,0.179508239
1989,0.1800172329
1988,0.1802511662
1987,0.1806313694
1986,0.1810544282
1985,0.1813405156
1984,0.1819057614
1983,0.182177186
1982,0.1825215071
1981,0.1828473061
1980,0.1833229065
1979,0.1837135106
1978,0.1839804053
1977,0.1843423992
1976,0.1847454756
1975,0.1851093322
1974,0.1854663938
1973,0.18577829
1972,0.1862298101
1971,0.1866246164
1970,0.1870059818
1969,0.187275067
1968,0.1876198798
1967,0.1879496723
1966,0.1884023845
1965,0.188656956
1964,0.1889963001
1963,0.1894140244
1962,0.1896642596
1961,0.1901160181
1960,0.1904679537
1959,0.1907040477
1958,0.1910629272
1957,0.1914065778
1956,0.1918412447
1955,0.1921519786
1954,0.1925462484
1953,0.1928302944
1952,0.1933405995
1951,0.1935689002
1950,0.1938664764
1949,0.1943571419
1948,0.1947583258
1947,0.1949439347
1946,0.1952059269
1945,0.1957146078
1944,0.1959812194
1943,0.1963139325
1942,0.1967155486
1941,0.1969405264
1940,0.1973179728
1939,0.1978703141
1938,0.1980382353
1937,0.1985758394
1936,0.198995471
1935,0.1991672069
1934,0.1996091455
1933,0.2000168413
1932,0.2001846433
1931,0.2006309032
1930,0.2009324133
1929,0.2014207542
1928,0.2018494606
1927,0.2022057027
1926,0.2023844123
1925,0.2027251273
1924,0.2032725811
1923,0.2035310864
1922,0.2035302669
1921,0.2041154206
1920,0.2050234079
1919,0.2052023709
1918,0.2053860575
1917,0.2056026459
1916,0.2061963528
1915,0.2065102458
1914,0.207056582
1913,0.2072775066
1912,0.2075411826
1911,0.207994014
1910,0.2083579004
1909,0.2087309957
1908,0.2088745534
1907,0.2090432495
1906,0.2100693434
1905,0.210397318
1904,0.2105153203
1903,0.210928902
1902,0.2113171518
1901,0.2113684863
1900,0.2122164965
1899,0.2125359178
1898,0.2129151523
1897,0.2131593972
1896,0.2133065313
1895,0.2135306299
1894,0.2140756994
1893,0.2145206779
1892,0.2146819085
1891,0.2150172442
1890,0.2156665027
1889,0.215916723
1888,0.2161253393
1887,0.216384083
1886,0.2167697847
1885,0.2170251459
1884,0.2175687701
1883,0.2177936137
1882,0.2179960012
1881,0.2183514237
1880,0.2186857164
1879,0.2187684178
1878,0.2190881073
1877,0.2195482254
1876,0.2199138403
1875,0.219793722
1874,0.219993487
1873,0.2206577212
1872,0.2209903002
1871,0.2210908979
1870,0.2216070741
1869,0.2216428518
1868,0.2222157717
1867,0.2227619588
1866,0.2224066257
1865,0.2226806879
1864,0.2229613513
1863,0.2232563645
1862,0.2231537402
1861,0.2231910974
1860,0.2238467932
1859,0.2241880447
1858,0.2241395861
1857,0.2243769318
1856,0.2246004343
1855,0.2245591134
1854,0.2250986844
1853,0.2253697813
1852,0.2251766622
1851,0.2252861559
1850,0.2252567559
1849,0.2253141552
1848,0.2257620245
1847,0.2261145711
1846,0.2260038257
1845,0.2259466797
1844,0.225928694
1843,0.2258391678
1842,0.2262058556
1841,0.2264558524
1840,0.2264537066
1839,0.2263819426
1838,0.2261906862
1837,0.2264745086
1836,0.2264588624
1835,0.2267016172
1834,0.2264920771
1833,0.2263249308
1832,0.2263814211
1831,0.2264653146
1830,0.2264909446
1829,0.2265379131
1828,0.2263735831
1827,0.2261992246
1826,0.2264043987
1825,0.2261800617
1824,0.2260092795
1823,0.2259130627
1822,0.2259257436
1821,0.2260015607
1820,0.2258584946
1819,0.2256893665
1818,0.2254785746
1817,0.2254050076
1816,0.2251830995
1815,0.2251914889
1814,0.2249215841
1813,0.2247813046
1812,0.2247407436
1811,0.224533543
1810,0.2242934108
1809,0.224109441
1808,0.2238477468
1807,0.2238109112
1806,0.2235530019
1805,0.2233932912
1804,0.2231069654
1803,0.2229631692
1802,0.2226754576
1801,0.2225749195
1800,0.222330302
1799,0.2220476717
1798,0.2218310833
1797,0.2215669751
1796,0.2214179486
1795,0.2209580094
1794,0.2208270133
1793,0.2205257714
1792,0.2202753872
1791,0.2200525552
1790,0.2196896523
1789,0.2194980979
1788,0.2192658037
1787,0.2189173549
1786,0.2186726928
1785,0.2184619009
1784,0.2181182802
1783,0.2177558839
1782,0.2175260931
1781,0.2172621489
1780,0.2168836892
1779,0.2165874839
1778,0.2162783593
1777,0.2160235047
1776,0.2156813443
1775,0.2153685391
1774,0.2150362283
1773,0.2146757096
1772,0.2143168449
1771,0.2140728533
1770,0.2137091458
1769,0.2133459598
1768,0.213000536
1767,0.2127779424
1766,0.212405324
1765,0.2121343017
1764,0.21181041
1763,0.2114583701
1762,0.2111936659
1761,0.2107126266
1760,0.2104539126
1759,0.2101441771
1758,0.209820047
1757,0.2095378339
1756,0.2091404498
1755,0.2088668495
1754,0.2085012943
1753,0.2081861198
1752,0.2078596801
1751,0.2075901479
1750,0.2072264552
1749,0.2067771554
1748,0.2064390033
1747,0.2062671483
1746,0.2058838457
1745,0.2055781782
1744,0.2051932365
1743,0.2047938257
1742,0.2045237869
1741,0.2041935921
1740,0.2037534267
1739,0.2034393251
1738,0.2031433731
1737,0.2027865201
1736,0.2024547607
1735,0.202125594
1734,0.2017662376
1733,0.2013264745
1732,0.2010285854
1731,0.2007566392
1730,0.2002949417
1729,0.1999572814
1728,0.1996572614
1727,0.1992262602
1726,0.198951304
1725,0.1985288113
1724,0.1980603635
1723,0.1978070438
1722,0.1973218024
1721,0.1971017271
1720,0.196668759
1719,0.196242705
1718,0.195880428
1717,0.1954976916
1716,0.1951440126
1715,0.1947660297
1714,0.1943248212
1713,0.1939824224
1712,0.193614617
1711,0.1931913793
1710,0.1927929372
1709,0.1923798472
1708,0.1920046955
1707,0.1916970015
1706,0.1912493706
1705,0.190743044
1704,0.1903725564
1703,0.18987903
1702,0.189577803
1701,0.1891410053
1700,0.1887811124
1699,0.1883687079
1698,0.1879087836
1697,0.1874589026
1696,0.1871787012
1695,0.1867119968
1694,0.1862472892
1693,0.1858704537
1692,0.185360387
1691,0.1850173324
1690,0.1847219169
1689,0.1841730177
1688,0.1837315261
1687,0.183342576
1686,0.1828448623
1685,0.1824475825
1684,0.1820761114
1683,0.1816758513
1682,0.1812106967
1681,0.1808423847
1680,0.1803512573
1679,0.1798626035
1678,0.1795428395
1677,0.1791612953
1676,0.1787019819
1675,0.1783192456
1674,0.1778980196
1673,0.17749466
1672,0.1771471202
1671,0.1767004281
1670,0.1762943715
1669,0.1759620011
1668,0.1754533648
1667,0.1751036644
1666,0.1747390032
1665,0.1743075848
1664,0.1739224046
1663,0.1734178513
1662,0.1730117202
1661,0.1726272702
1660,0.1722080261
1659,0.171863839
1658,0.1714417934
1657,0.1710195541
1656,0.1705611348
1655,0.1702643186
1654,0.1698695719
1653,0.1694376916
1652,0.1690203249
1651,0.168665722
1650,0.1682643592
1649,0.1677831262
1648,0.1673157811
1647,0.1670365334
1646,0.1666256785
1645,0.1662705988
1644,0.1659104973
1643,0.1654276997
1642,0.1650342792
1641,0.1646882892
1640,0.1642743945
1639,0.1638706774
1638,0.1635258794
1637,0.1631248593
1636,0.1627004147
1635,0.1623825431
1634,0.161954686
1633,0.161576435
1632,0.1611039042
1631,0.1607958227
1630,0.1603835225
1629,0.1600183994
1628,0.1596682668
1627,0.1592813581
1626,0.1589410752
1625,0.1586312801
1624,0.1582237184
1623,0.1577453613
1622,0.157429859
1621,0.1570560187
1620,0.1567465216
1619,0.15634799
1618,0.1559920609
1617,0.1556161493
1616,0.1553000957
1615,0.1549758613
1614,0.1546497941
1613,0.1542544812
1612,0.1539762765
1611,0.1536370218
1610,0.1533201188
1609,0.1529507786
1608,0.1526412815
1607,0.1523948461
1606,0.1519757062
1605,0.1516615152
1604,0.1514184475
1603,0.1510798335
1602,0.1507858038
1601,0.1504680067
1600,0.1502244622
1599,0.1498985142
1598,0.149634555
1597,0.149349466
1596,0.1490951031
1595,0.1488032788
1594,0.1485141069
1593,0.1482677758
1592,0.1480448395
1591,0.1477455795
1590,0.1475527138
1589,0.1472798586
1588,0.1470314264
1587,0.1467254162
1586,0.1466070563
1585,0.1463525891
1584,0.1460733414
1583,0.1458295733
1582,0.1456963271
1581,0.1454284936
1580,0.145246461
1579,0.1450601816
1578,0.1448138356
1577,0.1446038634
1576,0.1443389356
1575,0.1441373825
1574,0.1440714747
1573,0.1437999308
1572,0.1435537934
1571,0.1433854848
1570,0.143216759
1569,0.1430669278
1568,0.1428692639
1567,0.1426734179
1566,0.1425056159
1565,0.1423101574
1564,0.1421878934
1563,0.1419846267
1562,0.141904667
1561,0.1417364478
1560,0.1415210664
1559,0.1414051503
1558,0.1412105411
1557,0.141077444
1556,0.1408480257
1555,0.1406879872
1554,0.140586108
1553,0.1404466927
1552,0.1403043866
1551,0.1401664168
1550,0.1400337517
1549,0.1398929805
1548,0.1397746354
1547,0.1396107078
1546,0.1395021528
1545,0.1394059807
1544,0.1392455399
1543,0.1391544789
1542,0.1389896721
1541,0.1388540566
1540,0.1387827396
1539,0.1386583745
1538,0.1385070682
1537,0.1384092569
1536,0.1383437663
1535,0.1381996572
1534,0.1381534338
1533,0.1380129755
1532,0.1379443407
1531,0.1377785653
1530,0.1376944035
1529,0.1376158893
1528,0.1375183165
1527,0.137400344
1526,0.1373235881
1525,0.1372347027
1524,0.1371568143
1523,0.1370595247
1522,0.1369269043
1521,0.1368820667
1520,0.1368191689
1519,0.1366980523
1518,0.1366994381
1517,0.1365629584
1516,0.1364635676
1515,0.1363895684
1514,0.1363016963
1513,0.1362824291
1512,0.1362084895
1511,0.1361193806
1510,0.1360402703
1509,0.1359527558
1508,0.1359509081
1507,0.1358445436
1506,0.1357700527
1505,0.1357146353
1504,0.1356819421
1503,0.1356429607
1502,0.1355300844
1501,0.1354232579
1500,0.1353947967
1499,0.1353445202
1498,0.1353104115
1497,0.1352615654
1496,0.1351641566
1495,0.1351433545
1494,0.1351206601
1493,0.1350428313
1492,0.1350051016
1491,0.1348914504
1490,0.1349022239
1489,0.1348365694
1488,0.134828195
1487,0.1347994208
1486,0.1347379982
1485,0.1345483959
1484,0.1346128285
1483,0.134630546
1482,0.1345192492
1481,0.134469077
1480,0.1344014853
1479,0.1344603896
1478,0.1343634576
1477,0.1343498081
1476,0.134277761
1475,0.134182483
1474,0.134161815
1473,0.1342087537
1472,0.1341783553
1471,0.1340868026
1470,0.1340740025
1469,0.1339939982
1468,0.1339867115
1467,0.1340263188
1466,0.1339095682
1465,0.133856371
1464,0.1338514388
1463,0.1338181049
1462,0.1338371336
1461,0.1337633729
1460,0.1336949319
1459,0.1336927116
1458,0.1336402148
1457,0.1336205602
1456,0.1336199343
1455,0.1336314827
1454,0.1335977167
1453,0.1334792823
1452,0.1334332079
1451,0.133477807
1450,0.133478865
1449,0.1334214509
1448,0.1334135383
1447,0.1333520114
1446,0.1332995594
1445,0.1332829148
1444,0.1332913488
1443,0.133281365
1442,0.1332623959
1441,0.1332157552
1440,0.1331189126
1439,0.1330842376
1438,0.1331427991
1437,0.1331623942
1436,0.1331630945
1435,0.133022517
1434,0.1329742074
1433,0.1330109835
1432,0.132948935
1431,0.1330274493
1430,0.1328744441
1429,0.132840842
1428,0.1328685284
1427,0.1328434795
1426,0.1328399181
1425,0.132778421
1424,0.1327236295
1423,0.1327607781
1422,0.1326998472
1421,0.1326676607
1420,0.1326612979
1419,0.1326696575
1418,0.1326539963
1417,0.1326024234
1416,0.1325652152
1415,0.1326357275
1414,0.1325020045
1413,0.1325385273
1412,0.1325047761
1411,0.1323752999
1410,0.1323933154
1409,0.1324295104
1408,0.1323917657
1407,0.1323942244
1406,0.1323500276
1405,0.1323427856
1404,0.1323879808
1403,0.1322477609
1402,0.1322057098
1401,0.1323107034
1400,0.1323919445
1399,0.1322454065
1398,0.1321292818
1397,0.1321284771
1396,0.13224639
1395,0.1322496533
1394,0.1320956349
1393,0.1320813149
1392,0.1321716309
1391,0.1320726126
1390,0.1318954229
1389,0.1319059134
1388,0.1319614649
1387,0.131930396
1386,0.1319706291
1385,0.1318715066
1384,0.1318483204
1383,0.1320208311
1382,0.1320425719
1381,0.1319919825
1380,0.1319177747
1379,0.1318745613
1378,0.1318632662
1377,0.131878376
1376,0.1318142712
1375,0.131786406
1374,0.1317151636
1373,0.1316329986
1372,0.1316274554
1371,0.1316307187
1370,0.1315805167
1369,0.1315160096
1368,0.1315361559
1367,0.1315442473
1366,0.1314342618
1365,0.1314010173
1364,0.1314578801
1363,0.1313064396
1362,0.1315633208
1361,0.1315336674
1360,0.1313875616
1359,0.1313313097
1358,0.1313436329
1357,0.1312931627
1356,0.1312938035
1355,0.1312779337
1354,0.1312931329
1353,0.1313275248
1352,0.1312553138
1351,0.1312752664
1350,0.1312637478
1349,0.1312360168
1348,0.1312066615
1347,0.1312531084
1346,0.1312494576
1345,0.1312343031
1344,0.1312230229
1343,0.1311430484
1342,0.1312019378
1341,0.1311828941
1340,0.131269142
1339,0.131207794
1338,0.1312054098
1337,0.1312229186
1336,0.1312378049
1335,0.1312526166
1334,0.1312386096
1333,0.1312490404
1332,0.1312209964
1331,0.131240949
1330,0.1312779039
1329,0.1312848628
1328,0.1312833279
1327,0.1312891692
1326,0.1312765628
1325,0.13129583
1324,0.1313029081
1323,0.1312941462
1322,0.1313262731
1321,0.1313616782
1320,0.1314027309
1319,0.1314369291
1318,0.1314002126
1317,0.1314045936
1316,0.1314573139
1315,0.131476
1314,0.1315145046
1313,0.1315391362
1312,0.131533429
1311,0.1315863729
1310,0.1316086352
1309,0.1317102164
1308,0.1316292733
1307,0.1317156553
1306,0.1317627728
1305,0.1318042427
1304,0.1318369657
1303,0.1318676919
1302,0.1318597198
1301,0.1319551915
1300,0.1319565922
1299,0.1320271045
1298,0.1320558041
1297,0.1320994496
1296,0.1321520507
1295,0.1322667897
1294,0.1322747171
1293,0.1322758496
1292,0.1323793679
1291,0.1324102432
1290,0.1325392276
1289,0.1326253265
1288,0.1325991899
1287,0.1326757073
1286,0.1327326298
1285,0.1328117698
1284,0.1329188049
1283,0.1329548359
1282,0.1330070794
1281,0.1331243962
1280,0.1331796646
1279,0.1332389712
1278,0.1333505064
1277,0.1334111392
1276,0.1334249079
1275,0.1335635632
1274,0.1336896569
1273,0.1337765157
1272,0.1338766664
1271,0.1339306384
1270,0.1340289712
1269,0.1341692656
1268,0.1342500448
1267,0.1343852878
1266,0.1344480067
1265,0.1345204413
1264,0.1347079128
1263,0.1347752064
1262,0.1349169463
1261,0.1350228041
1260,0.1351458281
1259,0.1352864057
1258,0.1353821456
1257,0.1355412304
1256,0.1356728226
1255,0.1357863992
1254,0.1359042823
1253,0.1360201538
1252,0.1361805797
1251,0.1363200843
1250,0.1364647001
1249,0.1365733147
1248,0.1367729157
1247,0.1368870288
1246,0.1370630413
1245,0.1372223496
1244,0.137357831
1243,0.1375092566
1242,0.1376839131
1241,0.1378390044
1240,0.1379556507
1239,0.1381667703
1238,0.1383185238
1237,0.1384948641
1236,0.1386455446
1235,0.1387684643
1234,0.1390048265
1233,0.1391784847
1232,0.13935332
1231,0.1395327896
1230,0.1397094727
1229,0.139903307
1228,0.140100047
1227,0.1403298527
1226,0.1405023485
1225,0.1406290084
1224,0.1408886015
1223,0.1411070675
1222,0.1413118094
1221,0.1414861828
1220,0.1417104304
1219,0.1418926418
1218,0.1421832889
1217,0.1423810422
1216,0.1425832212
1215,0.1428252757
1214,0.1430714279
1213,0.1433423012
1212,0.1435725689
1211,0.1438463926
1210,0.1440877765
1209,0.1443055272
1208,0.1445521116
1207,0.1448232979
1206,0.1450690627
1205,0.1453522295
1204,0.1456346363
1203,0.1458576173
1202,0.1461673528
1201,0.1464805007
1200,0.1467362344
1199,0.1468366981
1198,0.1471365392
1197,0.1473760903
1196,0.1476487964
1195,0.1479744762
1194,0.1482970864
1193,0.1485969126
1192,0.1488826722
1191,0.1491571367
1190,0.1494446248
1189,0.1498191655
1188,0.1501373649
1187,0.1504137516
1186,0.1507060379
1185,0.1510293931
1184,0.1513711661
1183,0.1517243236
1182,0.1520041078
1181,0.1523082554
1180,0.1526340395
1179,0.1529716998
1178,0.1532709599
1177,0.1536047608
1176,0.1539402157
1175,0.1542374641
1174,0.1545693874
1173,0.1548940241
1172,0.1552499384
1171,0.1555168927
1170,0.1558779329
1169,0.1562126577
1168,0.1565317363
1167,0.1568739861
1166,0.1571742147
1165,0.157466799
1164,0.1578364521
1163,0.1581473351
1162,0.1584656686
1161,0.1588111371
1160,0.1591134816
1159,0.1595023274
1158,0.1598093212
1157,0.1601539105
1156,0.1604852527
1155,0.1608300805
1154,0.1611899287
1153,0.161559388
1152,0.1618828624
1151,0.1622646451
1150,0.1626183391
1149,0.1629711688
1148,0.1633710712
1147,0.1637738943
1146,0.1641432196
1145,0.1645179689
1144,0.1649776548
1143,0.1654351652
1142,0.1658489406
1141,0.1662575752
1140,0.1666609049
1139,0.1671262085
1138,0.167671904
1137,0.1680708975
1136,0.1685417295
1135,0.1690667421
1134,0.1695489734
1133,0.1700675935
1132,0.1706140041
1131,0.171121344
1130,0.1716024131
1129,0.1721154451
1128,0.1726694405
1127,0.1731679291
1126,0.1737785041
1125,0.1743531376
1124,0.1748742312
1123,0.1754429787
1122,0.1760539263
1121,0.176566571
1120,0.1771897525
1119,0.1777528822
1118,0.1783103943
1117,0.1788613051
1116,0.1794508398
1115,0.1799896508
1114,0.1805718839
1113,0.1811725348
1112,0.1817308068
1111,0.1822627187
1110,0.1828238368
1109,0.1833158731
1108,0.183841601
1107,0.1844289899
1106,0.1849404871
1105,0.1853524595
1104,0.1858748198
1103,0.1863415837
1102,0.186854586
1101,0.1873016506
1100,0.1876735985
1099,0.1881280094
1098,0.1885267496
1097,0.1889231056
1096,0.189274624
1095,0.1896465421
1094,0.1899189204
1093,0.190246135
1092,0.1905819923
1091,0.1908805072
1090,0.1911130548
1089,0.1913561374
1088,0.1916139722
1087,0.1918074191
1086,0.1920755953
1085,0.1922250688
1084,0.1924032718
1083,0.1925750524
1082,0.1928019673
1081,0.1929922253
1080,0.1931325793
1079,0.1932594031
1078,0.1934800446
1077,0.1936035752
1076,0.1937640607
1075,0.193939656
1074,0.194054082
1073,0.1943141371
1072,0.1945100874
1071,0.1947212815
1070,0.1948934495
1069,0.1950629652
1068,0.195300281
1067,0.1955556273
1066,0.1958211362
1065,0.1960277706
1064,0.1962767094
1063,0.1965969205
1062,0.1969233751
1061,0.1972037405
1060,0.1974756271
1059,0.1977632046
1058,0.198055625
1057,0.1984364986
1056,0.1988460869
1055,0.1991334707
1054,0.1994870007
1053,0.1998872161
1052,0.2002414465
1051,0.2006523013
1050,0.2010567188
1049,0.2014049888
1048,0.2017990649
1047,0.2022044212
1046,0.2025591135
1045,0.2029606402
1044,0.2033207864
1043,0.203675136
1042,0.2039857209
1041,0.2043676823
1040,0.2046746314
1039,0.2049755603
1038,0.2052535266
1037,0.2055984586
1036,0.2058923692
1035,0.2060554624
1034,0.206336081
1033,0.2065443695
1032,0.2066922486
1031,0.2068964839
1030,0.2070240527
1029,0.2071195841
1028,0.207220614
1027,0.2073199451
1026,0.2074281871
1025,0.2074760646
1024,0.2074561864
1023,0.2074142545
1022,0.2074657083
1021,0.2073862106
1020,0.2073542774
1019,0.2072227299
1018,0.2071076185
1017,0.2070434839
1016,0.2069413811
1015,0.2068021297
1014,0.2066394091
1013,0.2064379603
1012,0.2063222975
1011,0.2061803341
1010,0.2059636116
1009,0.205718115
1008,0.2054753751
1007,0.205339238
1006,0.2050710618
1005,0.2049426138
1004,0.2046194822
1003,0.2043329626
1002,0.204096213
1001,0.2037962526
1000,0.2035641819
999,0.2032929212
998,0.2030124366
997,0.2026903629
996,0.2023904324
995,0.2020701915
994,0.2017024755
993,0.2013733387
992,0.2010109425
991,0.2006578445
990,0.200322777
989,0.1999796033
988,0.1996325403
987,0.1992157698
986,0.1989545375
985,0.1984895617
984,0.198148191
983,0.1977797747
982,0.1973865926
981,0.1969850957
980,0.1966591626
979,0.1962573528
978,0.1959204078
977,0.1955218464
976,0.1952613145
975,0.1949269325
974,0.1946433783
973,0.1943381876
972,0.193986997
971,0.1935819536
970,0.1933345795
969,0.1930448413
968,0.192631349
967,0.1924068183
966,0.192193523
965,0.1918060929
964,0.1915913969
963,0.1912455112
962,0.1910196841
961,0.1906592846
960,0.1904467642
959,0.1902478635
958,0.1898528636
957,0.1895364374
956,0.1892947555
955,0.1889793724
954,0.1886560321
953,0.1882814467
952,0.1880267859
951,0.1877156645
950,0.1874239892
949,0.1869502366
948,0.1867033243
947,0.1863944978
946,0.1859639436
945,0.1857027262
944,0.1852180958
943,0.1848073155
942,0.1844406277
941,0.1842100471
940,0.1839061528
939,0.1834106892
938,0.1830750406
937,0.1825626194
936,0.182209909
935,0.181839779
934,0.1814338267
933,0.1811602861
932,0.1807939559
931,0.1804253012
930,0.1800078601
929,0.1796017885
928,0.1790910959
927,0.1787117869
926,0.1783562154
925,0.1780162603
924,0.1776864678
923,0.1772509068
922,0.1768139452
921,0.1764132529
920,0.1761149317
919,0.1757366061
918,0.1754133552
917,0.1747788638
916,0.1741753072
915,0.1740712523
914,0.1737315059
913,0.1732857376
912,0.172757566
911,0.1723248363
910,0.1722868085
909,0.171729967
908,0.1713215411
907,0.1710175127
906,0.1706033498
905,0.1701888442
904,0.1697478741
903,0.1693534106
902,0.1690998673
901,0.1688930839
900,0.168568477
899,0.1654901057
898,0.1617724001
897,0.1674003452
896,0.1684632748
895,0.1684801728
894,0.1700380296
893,0.1673952788
892,0.1658813357
891,0.1648314595
890,0.1670344025
889,0.167601943
888,0.1657837182
887,0.166249305
886,0.1682920009
885,0.1664493233
884,0.1650764346
883,0.1670094877
882,0.1661806405
881,0.1665322632
880,0.1656223387
879,0.1610221416
878,0.1637309939
877,0.1667897254
876,0.1636894345
875,0.1600675285
874,0.1678032726
873,0.1651189625
872,0.1635289341
871,0.1647208929
870,0.1612295955
869,0.1628268212
868,0.1639006138
867,0.1602298617
866,0.1617120951
865,0.1608425975
864,0.1626939029
863,0.1619052291
862,0.1625610888
861,0.1603063941
860,0.1616604477
859,0.1588389277
858,0.1617566198
857,0.161319837
856,0.1605219245
855,0.1590812951
854,0.1606871933
853,0.1608135551
852,0.1606706381
851,0.1596661657
850,0.1611577719
849,0.1608766466
848,0.1610182375
847,0.1606467664
846,0.1591532081
845,0.1593087763
844,0.160022065
843,0.1598662734
842,0.159529686
841,0.1595801115
840,0.1594579667
839,0.1589033008
838,0.1600087434
837,0.159055382
836,0.1591885388
835,0.1593657583
834,0.1588635594
833,0.1600858271
832,0.159853518
831,0.1593622416
830,0.1599549055
829,0.160050422
828,0.1601611376
827,0.1601836681
826,0.1605369151
825,0.1601752788
824,0.1603429317
823,0.1608092785
822,0.1605824977
821,0.1604481637
820,0.1610500365
819,0.1613755077
818,0.1612659544
817,0.1615739614
816,0.1620247513
815,0.1621965319
814,0.1616041511
813,0.1617017686
812,0.161940366
811,0.1627647281
810,0.1628630608
809,0.162838906
808,0.1630583107
807,0.1640036255
806,0.1641781628
805,0.1636909544
804,0.1639078259
803,0.1646710038
802,0.1647578776
801,0.1648765355
800,0.1650674641
799,0.1653943658
798,0.1656295061
797,0.1661502868
796,0.1661711484
795,0.166779235
794,0.1666752547
793,0.1668041646
792,0.167266205
791,0.1676006615
790,0.1676139086
789,0.1678901315
788,0.167993173
787,0.1686457992
786,0.1685163081
785,0.1687564254
784,0.168960765
783,0.1690187156
782,0.1697507501
781,0.1698256433
780,0.1702873409
779,0.1701894999
778,0.1706869751
777,0.1708942652
776,0.1712439656
775,0.1713374406
774,0.1719298363
773,0.1720508784
772,0.172740221
771,0.172998026
770,0.1733789891
769,0.1738114506
768,0.1740556061
767,0.1750045866
766,0.1748720556
765,0.1757537574
764,0.1764125973
763,0.1765747368
762,0.1773848534
761,0.1775459945
760,0.1788298041
759,0.1790810078
758,0.1794064194
757,0.1800670326
756,0.1804575324
755,0.1811558008
754,0.1815144569
753,0.1819904149
752,0.1823401898
751,0.1828914434
750,0.1834152192
749,0.1838247627
748,0.1841937751
747,0.1846716106
746,0.1849197298
745,0.1852178127
744,0.1854878664
743,0.1856926531
742,0.1858788729
741,0.1861393899
740,0.1866067201
739,0.1865944266
738,0.18622455
737,0.18663688
736,0.1869700253
735,0.1869555414
734,0.1867262423
733,0.1869706661
732,0.1868687123
731,0.1870053858
730,0.1871343255
729,0.1872745901
728,0.1872473359
727,0.1873797476
726,0.1874935329
725,0.1874842048
724,0.1877496839
723,0.1878048182
722,0.1878445446
721,0.1882591993
720,0.1880875677
719,0.1882784516
718,0.188706398
717,0.1886977553
716,0.1886005551
715,0.1891113073
714,0.1892641336
713,0.1894629449
712,0.1896201819
711,0.189870581
710,0.1902323365
709,0.1903460324
708,0.1904446334
707,0.1906145513
706,0.1907303929
705,0.1907097995
704,0.1907164156
703,0.1909484416
702,0.1909978688
701,0.1910405904
700,0.1909306794
699,0.1909748763
698,0.1909240186
697,0.1907362193
696,0.1906135529
695,0.1908332556
694,0.1904112399
693,0.1902833283
692,0.1903973222
691,0.1901858449
690,0.1898450553
689,0.1898399144
688,0.1894569844
687,0.1894967854
686,0.1892018616
685,0.1892465353
684,0.1889162213
683,0.1886540651
682,0.1884913892
681,0.1884076595
680,0.1882230192
679,0.1880682111
678,0.1878274232
677,0.1876687706
676,0.1875582039
675,0.1874976456
674,0.1871787906
673,0.1870607287
672,0.1868772656
671,0.186629355
670,0.186353907
669,0.1861875504
668,0.1861570328
667,0.1859155595
666,0.1856445819
665,0.1854368448
664,0.1854301691
663,0.1851040721
662,0.1851354986
661,0.1849035919
660,0.1846964508
659,0.1845201552
658,0.1845070571
657,0.1844219863
656,0.1843081266
655,0.1841440201
654,0.1840216964
653,0.1840536892
652,0.1837412864
651,0.183698222
650,0.183627367
649,0.183380872
648,0.1831992269
647,0.1832509786
646,0.182976082
645,0.1830330491
644,0.1826852411
643,0.1828564107
642,0.1825007498
641,0.1822131425
640,0.1821029186
639,0.1821014285
638,0.1818906963
637,0.1817257255
636,0.1815895289
635,0.1813650429
634,0.1813706607
633,0.1811862588
632,0.1809372455
631,0.1808731705
630,0.1809712946
629,0.1808379889
628,0.1807349622
627,0.1806092709
626,0.1804253012
625,0.1803529412
624,0.1802349687
623,0.1800983399
622,0.1801020652
621,0.1801069677
620,0.1800689101
619,0.1800017059
618,0.1799729168
617,0.1800427735
616,0.1798912734
615,0.1801508963
614,0.1800585985
613,0.180079028
612,0.1802079678
611,0.1801708043
610,0.1801317334
609,0.1804023981
608,0.180573374
607,0.1805444956
606,0.1808098853
605,0.180933401
604,0.1812667251
603,0.1814193726
602,0.1815342456
601,0.1819902211
600,0.1821138263
599,0.1825284511
598,0.1826440543
597,0.1828690022
596,0.1831465364
595,0.1833878607
594,0.183706522
593,0.1839336753
592,0.1842639744
591,0.1843255311
590,0.1845360398
589,0.184710145
588,0.1848091781
587,0.1849480569
586,0.1851482689
585,0.1852107942
584,0.1853225082
583,0.1854467988
582,0.1853095442
581,0.1855041683
580,0.1853452772
579,0.1857081354
578,0.1857780516
577,0.1858188212
576,0.1861358583
575,0.1862255931
574,0.1864887923
573,0.1870313436
572,0.1870992482
571,0.1874751151
570,0.1881843358
569,0.1880039126
568,0.1888016164
567,0.1891427636
566,0.1898444444
565,0.1902950853
564,0.1906022727
563,0.19114393
562,0.1917951405
561,0.1920426488
560,0.1927097738
559,0.1930669993
558,0.19342646
557,0.1936637759
556,0.1936402917
555,0.1941793859
554,0.194556877
553,0.1944344938
552,0.1944696158
551,0.1942857504
550,0.1940410584
549,0.1941682994
548,0.1939268708
547,0.1936680228
546,0.1932606101
545,0.1934340596
544,0.1932601333
543,0.1932234913
542,0.1933379322
541,0.1930814236
540,0.1930231601
539,0.1931622624
538,0.1934404522
537,0.1935093105
536,0.1939181238
535,0.1943936646
534,0.1946787685
533,0.1952495873
532,0.1952715069
531,0.1959556937
530,0.1962491423
529,0.1967670172
528,0.1971142292
527,0.1976150721
526,0.1981959045
525,0.1983668804
524,0.1989250332
523,0.1986957043
522,0.1992063969
521,0.1991496831
520,0.1992884725
519,0.1994718909
518,0.1993529946
517,0.1994318962
516,0.1995390058
515,0.1996042132
514,0.1995998323
513,0.1994669288
512,0.1996635348
511,0.2000901252
510,0.2002226561
509,0.2003884315
508,0.2007338703
507,0.2007755935
506,0.2011210024
505,0.2016175091
504,0.2017801553
503,0.2024520338
502,0.2030142248
501,0.2033756077
500,0.2040569484
499,0.2048608661
498,0.2052828074
497,0.2059904486
496,0.2064098567
495,0.2069369555
494,0.2075381726
493,0.2077139914
492,0.2078476995
491,0.2078417987
490,0.2079661787
489,0.2078479081
488,0.2072470486
487,0.2071851045
486,0.2066132575
485,0.2062738091
484,0.2061277777
483,0.2057812214
482,0.2054898292
481,0.2053714395
480,0.2054735422
479,0.2053868026
478,0.2055986971
477,0.2058732063
476,0.2058971077
475,0.2065711021
474,0.2070650458
473,0.2075462341
472,0.2080187947
471,0.2087651491
470,0.2093214989
469,0.2100520879
468,0.210625425
467,0.2107059807
466,0.2109483033
465,0.2109631151
464,0.2108830512
463,0.2104927152
462,0.2103584409
461,0.2100300044
460,0.2096338421
459,0.209234193
458,0.2088666856
457,0.2086874694
456,0.2086317986
455,0.2084274888
454,0.2084905356
453,0.2086351961
452,0.208677873
451,0.209026292
450,0.2092497349
449,0.2097947747
448,0.2100286931
447,0.2105067521
446,0.2109686583
445,0.2114614844
444,0.2121449709
443,0.2125105262
442,0.212697506
441,0.2131232768
440,0.2134530097
439,0.213742733
438,0.213911131
437,0.2142750472
436,0.2143599242
435,0.2145397216
434,0.2147929817
433,0.2151946425
432,0.2154197097
431,0.2158045918
430,0.2161386758
429,0.2163356543
428,0.2171355486
427,0.2176193446
426,0.2176646888
425,0.2183182985
424,0.2189544737
423,0.2195868045
422,0.2202391922
421,0.2203505337
420,0.2204981148
419,0.2209912837
418,0.2209106535
417,0.2209176272
416,0.2206929475
415,0.2212383002
414,0.2212621272
413,0.2216104269
412,0.2217878252
411,0.2221143544
410,0.222261548
409,0.2230602056
408,0.2233512849
407,0.2240971774
406,0.2246515006
405,0.2253078967
404,0.2262134403
403,0.2270660698
402,0.2274826169
401,0.2279653102
400,0.2285785824
399,0.2297163308
398,0.2296740711
397,0.2299334556
396,0.2300733477
395,0.230324775
394,0.2307621688
393,0.2309170216
392,0.2312675267
391,0.2317822278
390,0.2318202704
389,0.2324228734
388,0.2332138866
387,0.2335272282
386,0.2341960371
385,0.2345890403
384,0.2353811115
383,0.2362514585
382,0.2365135998
381,0.237572059
380,0.2381048948
379,0.2393310666
378,0.2398352176
377,0.2408627719
376,0.2416706085
375,0.2422097325
374,0.2430024743
373,0.2443286926
372,0.2451432049
371,0.2458314747
370,0.2463247925
369,0.2471943349
368,0.2473110557
367,0.2479282767
366,0.2483735383
365,0.2492714971
364,0.2492589951
363,0.2497773916
362,0.2505783141
361,0.2515946329
360,0.2521079183
359,0.2531803846
358,0.2542032003
357,0.2553091049
356,0.2569747567
355,0.2577303648
354,0.258636862
353,0.259745568
352,0.260804832
351,0.2621175647
350,0.2627031207
349,0.2614276707
348,0.2617975473
347,0.2631997466
346,0.2632451653
345,0.2644682229
344,0.2659724951
343,0.2664397955
342,0.2676150501
341,0.268276751
340,0.2696062326
339,0.2702777982
338,0.2718172371
337,0.2729339302
336,0.274675101
335,0.2755693495
334,0.2766598463
333,0.2780202031
332,0.2786883712
331,0.2795900702
330,0.2807235718
329,0.2822768092
328,0.2826441526
327,0.2846017182
326,0.2861838043
325,0.2871614397
324,0.2879468203
323,0.2902431488
322,0.2917740047
321,0.2936583459
320,0.2958675027
319,0.2971842289
318,0.2987885773
317,0.3008771837
316,0.3024376929
315,0.3040664494
314,0.3068390489
313,0.308141619
312,0.3100976348
311,0.3120645285
310,0.3146628141
309,0.3159674406
308,0.3181428313
307,0.3208162487
306,0.3228508234
305,0.3254484832
304,0.3281223178
303,0.3298692107
302,0.3328230679
301,0.3345494568
300,0.3371113241
299,0.3392241001
298,0.3418173194
297,0.3438785672
296,0.3463478386
295,0.34915483
294,0.3520596921
293,0.3549016714
292,0.3575171828
291,0.3598120511
290,0.3633368313
289,0.3656501174
288,0.3681277037
287,0.3707758784
286,0.3736979365
285,0.3762647808
284,0.3786526322
283,0.3805738986
282,0.3828729093
281,0.384989351
280,0.3867944181
279,0.3887681067
278,0.3903878629
277,0.3924710453
276,0.3930954635
275,0.3944923878
274,0.3951888382
273,0.3957104385
272,0.3967631757
271,0.3971179426
270,0.39748317
269,0.396735698
268,0.397069186
267,0.396414876
266,0.3959606588
265,0.3950053751
264,0.394906044
263,0.3937041759
262,0.3925414681
261,0.3914514184
260,0.3901887834
259,0.3887893558
258,0.3869248033
257,0.385360837
256,0.3838457167
255,0.3824927211
254,0.3805092573
253,0.3778441846
252,0.3754884303
251,0.3730024695
250,0.3699569404
249,0.3672105074
248,0.3638808131
247,0.361019522
246,0.3568392694
245,0.3532954454
244,0.3488426805
243,0.3446021378
242,0.341093421
241,0.3374399841
240,0.3335286677
239,0.3303760886
238,0.3267470896
237,0.3235209286
236,0.3206225038
235,0.3175074756
234,0.3153067827
233,0.3126878142
232,0.310424149
231,0.3087239563
230,0.3063651323
229,0.3047093451
228,0.3036962748
227,0.3029305637
226,0.3031182587
225,0.3039019704
224,0.3060527444
223,0.3096454442
222,0.3149055839
221,0.3226668835
220,0.3325448632
219,0.3452811837
218,0.3610266745
217,0.3787730932
216,0.3992465436
215,0.4211814404
214,0.4447461367
213,0.4679101706
212,0.4918742478
211,0.5135090947
210,0.5332731009
209,0.5498815179
208,0.5632922649
207,0.5726332664
206,0.5799776912
205,0.5817444921
204,0.5818978548
203,0.5770982504
202,0.5726983547
201,0.5640946031
200,0.5519922376
