Dodecane_KIT_Temp_50
Wavelength (nm),Abs
2655,0.07780900598
2654,0.07740160078
2653,0.07744608819
2652,0.07813490927
2651,0.07780139148
2650,0.07863839716
2649,0.07806020975
2648,0.07898610085
2647,0.07862325758
2646,0.0788847357
2645,0.08185471594
2644,0.08088920265
2643,0.0792099908
2642,0.0803187862
2641,0.07875794917
2640,0.07926441729
2639,0.07924658805
2638,0.07896336913
2637,0.08009556681
2636,0.07836028934
2635,0.07702279836
2634,0.07775599509
2633,0.07901578397
2632,0.07532864064
2631,0.07416960597
2630,0.08249172568
2629,0.08026771247
2628,0.07784028351
2627,0.0801172331
2626,0.08052127063
2625,0.07979699224
2624,0.07980843633
2623,0.07922418416
2622,0.07827661186
2621,0.07613389939
2620,0.07750240713
2619,0.08167681843
2618,0.07575709373
2617,0.0771663636
2616,0.07960933447
2615,0.07945096493
2614,0.07831995189
2613,0.0810065344
2612,0.08001529425
2611,0.07874978334
2610,0.07845207304
2609,0.08023983985
2608,0.08172215521
2607,0.07994598895
2606,0.08095541596
2605,0.0790650323
2604,0.08096969873
2603,0.07820805162
2602,0.07855178416
2601,0.07968993485
2600,0.08007374406
2599,0.07922875136
2598,0.07889681309
2597,0.07718702406
2596,0.07287261635
2595,0.07939931005
2594,0.08086656034
2593,0.08027631044
2592,0.08066964895
2591,0.07994004339
2590,0.07830147445
2589,0.07781878859
2588,0.07928740978
2587,0.08282645792
2586,0.08076407015
2585,0.07626479864
2584,0.08006266505
2583,0.0809154287
2582,0.08000757545
2581,0.07995983958
2580,0.08100978285
2579,0.07994449884
2578,0.08042220026
2577,0.08239248395
2576,0.08228321373
2575,0.08121749014
2574,0.0822487399
2573,0.0818059966
2572,0.08102943748
2571,0.08055022359
2570,0.08099780232
2569,0.08137562871
2568,0.0805548057
2567,0.08088564873
2566,0.08029081672
2565,0.08162698895
2564,0.08031405509
2563,0.07780148089
2562,0.07858283073
2561,0.08166976273
2560,0.08260520548
2559,0.08161499351
2558,0.08142252266
2557,0.08122204989
2556,0.08122120798
2555,0.08130966127
2554,0.08135785908
2553,0.08096186817
2552,0.07994748652
2551,0.0810091272
2550,0.08140946925
2549,0.08108315617
2548,0.08188988268
2547,0.08160822093
2546,0.08153956383
2545,0.08174115419
2544,0.08123809099
2543,0.08083699644
2542,0.08174812049
2541,0.08196362108
2540,0.08182924986
2539,0.08203237504
2538,0.08161780983
2537,0.0812484175
2536,0.08102329075
2535,0.08143426478
2534,0.08149965107
2533,0.08095687628
2532,0.08131905645
2531,0.08153691143
2530,0.08166857064
2529,0.08220992237
2528,0.0818984434
2527,0.08211321384
2526,0.08214179426
2525,0.08270481229
2524,0.08262283355
2523,0.08260119706
2522,0.08203678578
2521,0.0826189518
2520,0.0824983269
2519,0.08253579587
2518,0.08241032064
2517,0.08253294975
2516,0.08246026933
2515,0.08270424604
2514,0.0827671662
2513,0.0825773105
2512,0.08234795183
2511,0.08268216997
2510,0.08263961226
2509,0.08245260268
2508,0.08282874525
2507,0.08260523528
2506,0.08263617009
2505,0.08242659271
2504,0.08270528167
2503,0.08311621845
2502,0.08334231377
2501,0.082888484
2500,0.08328344673
2499,0.08276005834
2498,0.08284039795
2497,0.08326657861
2496,0.08305055648
2495,0.08319932222
2494,0.08264838159
2493,0.08322609961
2492,0.0833934322
2491,0.08335200697
2490,0.0834801048
2489,0.08327335119
2488,0.08327163011
2487,0.08351662755
2486,0.08337894827
2485,0.08343163878
2484,0.08374280483
2483,0.08370830864
2482,0.08337107301
2481,0.08348735422
2480,0.08352525532
2479,0.08360937983
2478,0.08360821754
2477,0.08387316018
2476,0.08358778805
2475,0.08379451185
2474,0.08369217068
2473,0.08375643194
2472,0.08408390731
2471,0.0841332376
2470,0.08408629894
2469,0.08373454958
2468,0.08416198194
2467,0.08439031988
2466,0.08404222131
2465,0.08410061896
2464,0.08465102315
2463,0.0844174847
2462,0.0843238011
2461,0.08447313309
2460,0.08422992378
2459,0.08447134495
2458,0.08444810659
2457,0.08456854522
2456,0.08439585567
2455,0.08479414135
2454,0.08469625562
2453,0.0845419094
2452,0.08472976089
2451,0.08484600484
2450,0.08480814099
2449,0.08476890624
2448,0.08480206877
2447,0.08481711149
2446,0.0850655362
2445,0.08526168019
2444,0.08516312391
2443,0.08503899723
2442,0.08536558598
2441,0.08513377607
2440,0.08522750437
2439,0.08544420451
2438,0.08549355716
2437,0.08516605198
2436,0.08525931835
2435,0.08577927202
2434,0.08544464409
2433,0.08552341163
2432,0.08583238721
2431,0.08563982695
2430,0.08571565896
2429,0.08585487306
2428,0.08573363721
2427,0.08577359468
2426,0.08609240502
2425,0.08612333238
2424,0.08596866578
2423,0.08605617285
2422,0.0861184746
2421,0.08586847037
2420,0.08644258976
2419,0.08617693186
2418,0.08596384525
2417,0.08643583208
2416,0.08640901744
2415,0.08629962057
2414,0.08651872724
2413,0.08651708066
2412,0.08638441563
2411,0.08662905544
2410,0.08690821379
2409,0.08667074144
2408,0.08677387983
2407,0.08709329367
2406,0.08676938713
2405,0.08696199954
2404,0.08717302233
2403,0.08707109094
2402,0.0870532468
2401,0.08726380765
2400,0.08701529354
2399,0.08725488186
2398,0.08751819283
2397,0.08737952262
2396,0.08725982159
2395,0.0876648277
2394,0.08766828477
2393,0.08763001859
2392,0.08795244992
2391,0.08781769127
2390,0.08765631169
2389,0.08813762665
2388,0.08811485767
2387,0.08795925975
2386,0.08814089745
2385,0.08827946335
2384,0.08813524991
2383,0.08842174709
2382,0.08846963942
2381,0.08846243471
2380,0.08847360313
2379,0.08879487962
2378,0.08869209141
2377,0.08863849938
2376,0.08886004984
2375,0.08901015669
2374,0.08897603303
2373,0.0892463699
2372,0.08933828771
2371,0.08914782852
2370,0.08931673318
2369,0.08943413943
2368,0.08955189586
2367,0.08949361742
2366,0.08956933022
2365,0.08982284367
2364,0.08976106346
2363,0.08970145136
2362,0.09014808387
2361,0.09006621689
2360,0.08994054794
2359,0.09020597488
2358,0.09049393982
2357,0.09036206454
2356,0.09035179764
2355,0.09067118168
2354,0.09055318683
2353,0.09066598117
2352,0.0908601135
2351,0.09097895771
2350,0.0909832716
2349,0.09110483527
2348,0.09122659266
2347,0.09129110724
2346,0.09120225906
2345,0.09136253595
2344,0.09174548835
2343,0.09165325016
2342,0.09155083448
2341,0.09194150567
2340,0.09182664752
2339,0.09178142995
2338,0.09208413959
2337,0.09225083143
2336,0.09225361049
2335,0.09221725166
2334,0.09245847911
2333,0.09260602295
2332,0.09252862632
2331,0.0926284492
2330,0.09292542934
2329,0.09300085157
2328,0.09299186617
2327,0.09314505011
2326,0.093461968
2325,0.09318229556
2324,0.09335829318
2323,0.09375624359
2322,0.09360191971
2321,0.09372181445
2320,0.09400032461
2319,0.09386409819
2318,0.09398528188
2317,0.09408142418
2316,0.09431728721
2315,0.0946047157
2314,0.09442566335
2313,0.09446678311
2312,0.09500661492
2311,0.09485023469
2310,0.09488060325
2309,0.09510733187
2308,0.0953681618
2307,0.09542308003
2306,0.09558130801
2305,0.09555269778
2304,0.09582525492
2303,0.09591915458
2302,0.09583090246
2301,0.09616044909
2300,0.09613970667
2299,0.09616978467
2298,0.09639657289
2297,0.09632327408
2296,0.09667094797
2295,0.09674563259
2294,0.09672108293
2293,0.09702692926
2292,0.09722055495
2291,0.09720423818
2290,0.09754467756
2289,0.09776888043
2288,0.09758579731
2287,0.09773013741
2286,0.0975844413
2285,0.09791489691
2284,0.09843064845
2283,0.09853769094
2282,0.09831494093
2281,0.09848085046
2280,0.09867967665
2279,0.09863484651
2278,0.09906227887
2277,0.09877981991
2276,0.09936819226
2275,0.09948378801
2274,0.09910130501
2273,0.09943783283
2272,0.09982680529
2271,0.1000636294
2270,0.09984599054
2269,0.1002919078
2268,0.100279741
2267,0.1007600576
2266,0.1006590277
2265,0.1008194759
2264,0.1008119285
2263,0.1009612978
2262,0.1014818624
2261,0.1012321338
2260,0.1013641581
2259,0.102204144
2258,0.1020589694
2257,0.1021966487
2256,0.1017566249
2255,0.1020190939
2254,0.1026075706
2253,0.1027591005
2252,0.102665998
2251,0.1029344946
2250,0.1031636968
2249,0.1032588705
2248,0.1035249382
2247,0.1034138054
2246,0.1036832631
2245,0.1041441858
2244,0.1041583717
2243,0.1040359586
2242,0.1044475064
2241,0.104514353
2240,0.1048540771
2239,0.1047008634
2238,0.1049504802
2237,0.1051339209
2236,0.1055669859
2235,0.1058002189
2234,0.1057025716
2233,0.1055120602
2232,0.106078364
2231,0.1064378023
2230,0.1064480916
2229,0.1065465063
2228,0.1066778675
2227,0.1070652008
2226,0.1074283123
2225,0.107405141
2224,0.1073480621
2223,0.1077475026
2222,0.1079750136
2221,0.10838902
2220,0.1085391492
2219,0.1084970757
2218,0.108850114
2217,0.1089864671
2216,0.1091410667
2215,0.1093370393
2214,0.1094905362
2213,0.1100464091
2212,0.110187903
2211,0.1105670333
2210,0.1105419174
2209,0.1105189845
2208,0.1107633486
2207,0.1112833247
2206,0.1116407439
2205,0.1117915362
2204,0.111813575
2203,0.1117995754
2202,0.1122146323
2201,0.1124844328
2200,0.1124441549
2199,0.1124783307
2198,0.1128318682
2197,0.112960279
2196,0.113510862
2195,0.1136674508
2194,0.1136434078
2193,0.1137906238
2192,0.1140384898
2191,0.1142293438
2190,0.11447227
2189,0.1148141176
2188,0.114854008
2187,0.1150327399
2186,0.1150208637
2185,0.1156041697
2184,0.1156503186
2183,0.1158979535
2182,0.1160239279
2181,0.116059199
2180,0.1165369079
2179,0.116831772
2178,0.117048122
2177,0.1173754483
2176,0.117381148
2175,0.1176535413
2174,0.1177128702
2173,0.1184029803
2172,0.1185666472
2171,0.1186751574
2170,0.1187879145
2169,0.1189603135
2168,0.1194339991
2167,0.1196892336
2166,0.1198911816
2165,0.1202427894
2164,0.1203064695
2163,0.1202882379
2162,0.1206078976
2161,0.1211771742
2160,0.1211522296
2159,0.1214716434
2158,0.1217765212
2157,0.1219852716
2156,0.1221078411
2155,0.1223917603
2154,0.1227994859
2153,0.1229660213
2152,0.1232882813
2151,0.1234199926
2150,0.123625651
2149,0.1239962652
2148,0.1244538724
2147,0.1245094165
2146,0.1247670949
2145,0.1249926537
2144,0.1251395494
2143,0.1254080385
2142,0.1258109957
2141,0.1260640919
2140,0.1262560785
2139,0.1263937205
2138,0.1269134879
2137,0.1270502508
2136,0.1271960884
2135,0.1276358515
2134,0.1280505508
2133,0.1282370538
2132,0.128445223
2131,0.1286431998
2130,0.129084304
2129,0.1293176562
2128,0.1295555681
2127,0.1298285425
2126,0.1301744878
2125,0.1304695308
2124,0.1307303607
2123,0.1309201866
2122,0.1311394125
2121,0.1315084696
2120,0.1317825764
2119,0.1321840584
2118,0.1324016303
2117,0.1328240037
2116,0.1330183297
2115,0.1333859414
2114,0.1336015463
2113,0.1339065731
2112,0.1341873407
2111,0.1346178502
2110,0.1349015534
2109,0.135184586
2108,0.1355514079
2107,0.135868147
2106,0.1361319572
2105,0.1363100857
2104,0.1367469579
2103,0.1369307488
2102,0.1374236792
2101,0.1379038393
2100,0.138011232
2099,0.1384368241
2098,0.1386744678
2097,0.1391017437
2096,0.1394383162
2095,0.1397393197
2094,0.1400509477
2093,0.1403087527
2092,0.1406824738
2091,0.1411776841
2090,0.1413695514
2089,0.141781047
2088,0.1420517266
2087,0.1425507665
2086,0.1428488642
2085,0.1431115121
2084,0.1435461938
2083,0.143951714
2082,0.144290328
2081,0.144614771
2080,0.1448422372
2079,0.1452800632
2078,0.1457483917
2077,0.145925954
2076,0.1465048343
2075,0.146851182
2074,0.1470320821
2073,0.1475451291
2072,0.1479425579
2071,0.1483061165
2070,0.1484945714
2069,0.1491551548
2068,0.1493177414
2067,0.1498247236
2066,0.1500092596
2065,0.1506446898
2064,0.1509095728
2063,0.1513025016
2062,0.1517708749
2061,0.1521463692
2060,0.1524895281
2059,0.1528431177
2058,0.1531480402
2057,0.1536010057
2056,0.1538709402
2055,0.1544046104
2054,0.1548091918
2053,0.1552777737
2052,0.1557216197
2051,0.1559714824
2050,0.1563582718
2049,0.1566931605
2048,0.1573606879
2047,0.157355696
2046,0.1579481959
2045,0.158343941
2044,0.1586699933
2043,0.1591933221
2042,0.1596684903
2041,0.1600445509
2040,0.1602975577
2039,0.1608293653
2038,0.1610665768
2037,0.161686331
2036,0.1619796753
2035,0.1624294519
2034,0.1627904028
2033,0.163253203
2032,0.1636574417
2031,0.1641911566
2030,0.1644921005
2029,0.1649291664
2028,0.1652564108
2027,0.1656872332
2026,0.1660565585
2025,0.1664731652
2024,0.1670571417
2023,0.1672364473
2022,0.1675054729
2021,0.1681284904
2020,0.1685713381
2019,0.1690095812
2018,0.1693169475
2017,0.1696845442
2016,0.1701781154
2015,0.170641914
2014,0.1710266918
2013,0.1715097278
2012,0.1717845649
2011,0.1722750962
2010,0.1726318151
2009,0.1730443686
2008,0.173434481
2007,0.1737700105
2006,0.1741193384
2005,0.1746162772
2004,0.1750420034
2003,0.1754369736
2002,0.1758657545
2001,0.1761765629
2000,0.1766946763
1999,0.1771044582
1998,0.1774972677
1997,0.1778158695
1996,0.1781708151
1995,0.1786420196
1994,0.1790882498
1993,0.1794905514
1992,0.1798045635
1991,0.1802709699
1990,0.1806443036
1989,0.1809893847
1988,0.181304872
1987,0.1817685217
1986,0.1820543855
1985,0.182338655
1984,0.1830302179
1983,0.1831035614
1982,0.1834938526
1981,0.1839356869
1980,0.1842759997
1979,0.1847625077
1978,0.185044691
1977,0.1853328198
1976,0.1857710928
1975,0.1861454248
1974,0.1865285933
1973,0.1868167669
1972,0.1873393357
1971,0.1877327412
1970,0.1880325675
1969,0.1883729845
1968,0.1886545569
1967,0.1890521049
1966,0.1894185841
1965,0.1897566915
1964,0.1901770979
1963,0.19048886
1962,0.1907656193
1961,0.1911577582
1960,0.1915199757
1959,0.1918317378
1958,0.1922119856
1957,0.1925424188
1956,0.1929673254
1955,0.1932274848
1954,0.193540886
1953,0.1938646138
1952,0.194285661
1951,0.1947206259
1950,0.1950644255
1949,0.1954221278
1948,0.195701316
1947,0.195988819
1946,0.1963305324
1945,0.1967923045
1944,0.1970435679
1943,0.1974812597
1942,0.1977195293
1941,0.1980698854
1940,0.1985451579
1939,0.1989656687
1938,0.1992529631
1937,0.1995317638
1936,0.1998843402
1935,0.2002616525
1934,0.2006946206
1933,0.2010725588
1932,0.2012119591
1931,0.201715976
1930,0.2020013034
1929,0.2024221569
1928,0.2027854025
1927,0.2031086236
1926,0.2034602016
1925,0.2036739439
1924,0.2044194937
1923,0.2046524435
1922,0.2045494914
1921,0.2049658
1920,0.2060511857
1919,0.2062894106
1918,0.2063164264
1917,0.2066719979
1916,0.2071697265
1915,0.207426846
1914,0.2080132812
1913,0.2083479762
1912,0.2084384561
1911,0.2090883702
1910,0.2094804198
1909,0.2096869946
1908,0.2099625319
1907,0.2101079673
1906,0.2110675126
1905,0.2115639001
1904,0.2115633488
1903,0.2120421231
1902,0.212178424
1901,0.2123497277
1900,0.2130206227
1899,0.2135861218
1898,0.2138899118
1897,0.2143232971
1896,0.2144333869
1895,0.2145615369
1894,0.2150488943
1893,0.2154995948
1892,0.2156958133
1891,0.2161903679
1890,0.2166590095
1889,0.2168721706
1888,0.2172140777
1887,0.2174633443
1886,0.2178916335
1885,0.2181207687
1884,0.2184807658
1883,0.2188533396
1882,0.2190116346
1881,0.2194037586
1880,0.2197635472
1879,0.219920069
1878,0.2201777399
1877,0.2205707729
1876,0.2209880203
1875,0.2209397107
1874,0.2210175991
1873,0.2216870189
1872,0.2219538391
1871,0.2223351896
1870,0.222660929
1869,0.2225791216
1868,0.2231878042
1867,0.223786816
1866,0.223371774
1865,0.2236153334
1864,0.2240378559
1863,0.2242784798
1862,0.2242241353
1861,0.2242575735
1860,0.2249072492
1859,0.225298807
1858,0.2250765115
1857,0.2253794372
1856,0.2256925404
1855,0.225534007
1854,0.226075843
1853,0.2264430672
1852,0.226242587
1851,0.2262396663
1850,0.2262151837
1849,0.2263456732
1848,0.2268897444
1847,0.227248624
1846,0.2271271199
1845,0.2269030958
1844,0.2269086391
1843,0.226776585
1842,0.2273137271
1841,0.2274793833
1840,0.2274023741
1839,0.2273689061
1838,0.2272986472
1837,0.2275037616
1836,0.2275029421
1835,0.2278319746
1834,0.2275329679
1833,0.2273835838
1832,0.2273284495
1831,0.2274462134
1830,0.2275900096
1829,0.2275512367
1828,0.2274597585
1827,0.2271602154
1826,0.2273926288
1825,0.2273180485
1824,0.2270548046
1823,0.2270540595
1822,0.2269093394
1821,0.2270302624
1820,0.2270101011
1819,0.2267185897
1818,0.226507172
1817,0.2263352126
1816,0.2262390554
1815,0.2261742204
1814,0.2258665562
1813,0.2258425653
1812,0.2258003801
1811,0.2255561501
1810,0.2253885716
1809,0.2251688391
1808,0.2249517441
1807,0.2248530686
1806,0.224586457
1805,0.2243968546
1804,0.2240732759
1803,0.2239294201
1802,0.223684594
1801,0.2235277444
1800,0.2233519852
1799,0.2230738252
1798,0.2228881717
1797,0.2225766033
1796,0.2223778218
1795,0.2220775783
1794,0.2218502909
1793,0.2215553224
1792,0.2213302404
1791,0.2210532129
1790,0.2207017243
1789,0.2205838859
1788,0.2203172147
1787,0.220011577
1786,0.2195630372
1785,0.2193309963
1784,0.2191389203
1783,0.2186487019
1782,0.2185186595
1781,0.2181672603
1780,0.2177620381
1779,0.2175703943
1778,0.2172694057
1777,0.216943711
1776,0.2166934609
1775,0.2163197547
1774,0.2159844786
1773,0.2156419158
1772,0.2153358012
1771,0.2150624394
1770,0.2146825939
1769,0.2144109458
1768,0.2140302211
1767,0.2137445062
1766,0.2134052813
1765,0.2130984515
1764,0.2127877027
1763,0.2124070078
1762,0.2121171206
1761,0.2117258906
1760,0.2115111053
1759,0.2111346871
1758,0.2107857615
1757,0.2104766071
1756,0.2101289332
1755,0.2098445892
1754,0.2094318271
1753,0.2092135251
1752,0.2087903917
1751,0.2084726691
1750,0.2081188112
1749,0.2077435255
1748,0.2074470967
1747,0.2072256953
1746,0.2068142444
1745,0.2065324038
1744,0.206145376
1743,0.2056788802
1742,0.2054078579
1741,0.2050449103
1740,0.2047035694
1739,0.2044279128
1738,0.2040129304
1737,0.2037876099
1736,0.2033629864
1735,0.2030646205
1734,0.202690199
1733,0.2022882253
1732,0.2019182295
1731,0.2016623169
1730,0.2011771053
1729,0.2008481324
1728,0.2004861683
1727,0.2001598179
1726,0.199896574
1725,0.1993443817
1724,0.1990778744
1723,0.1986172646
1722,0.1982422769
1721,0.1979347467
1720,0.1975693703
1719,0.1972166151
1718,0.1967927963
1717,0.1964487731
1716,0.1960865557
1715,0.1956258863
1714,0.1952415109
1713,0.1948446333
1712,0.1945755482
1711,0.1940950006
1710,0.1937260032
1709,0.1932818592
1708,0.1929852515
1707,0.1925286353
1706,0.192093119
1705,0.1915888637
1704,0.1913353056
1703,0.1907754987
1702,0.1904055029
1701,0.1901268065
1700,0.1897090375
1699,0.1892344058
1698,0.1888020188
1697,0.188365832
1696,0.1880436242
1695,0.1875800937
1694,0.1871336997
1693,0.1868049055
1692,0.1863226146
1691,0.185893327
1690,0.1855563074
1689,0.1850514561
1688,0.1846225858
1687,0.1843009293
1686,0.1838307679
1685,0.1833366454
1684,0.1829464585
1683,0.182559073
1682,0.1820624918
1681,0.1817324162
1680,0.1813008636
1679,0.1807811111
1678,0.1804153323
1677,0.180047676
1676,0.1796212792
1675,0.1792010963
1674,0.1787588149
1673,0.1783972383
1672,0.1779948473
1671,0.1776384562
1670,0.1772048473
1669,0.1768174171
1668,0.1763151884
1667,0.1759767979
1666,0.1756285727
1665,0.1752174646
1664,0.1747988015
1663,0.174288705
1662,0.173977226
1661,0.1735592335
1660,0.1731996685
1659,0.1727308184
1658,0.1723533124
1657,0.1719272137
1656,0.171460703
1655,0.1711681038
1654,0.1707653254
1653,0.1703507155
1652,0.1698935032
1651,0.169548139
1650,0.1691559255
1649,0.1686727405
1648,0.1682821959
1647,0.1679465771
1646,0.1675148308
1645,0.1671294719
1644,0.1667993814
1643,0.1663581431
1642,0.1659644842
1641,0.1656217724
1640,0.1651459485
1639,0.1647552699
1638,0.1643934846
1637,0.1639907509
1636,0.1635697633
1635,0.1633246839
1634,0.1628050208
1633,0.162436977
1632,0.1620025337
1631,0.1616352051
1630,0.1613083631
1629,0.160908401
1628,0.1605434269
1627,0.1601808965
1626,0.1598776132
1625,0.1595423967
1624,0.1591178924
1623,0.1586830914
1622,0.1583575457
1621,0.1579851508
1620,0.157687664
1619,0.1572806537
1618,0.156919688
1617,0.1565443128
1616,0.1561735719
1615,0.1559196711
1614,0.1555141211
1613,0.1552003473
1612,0.1548786014
1611,0.1545375288
1610,0.1541647017
1609,0.1538866162
1608,0.1535949558
1607,0.1533138454
1606,0.1528584212
1605,0.1526189893
1604,0.1523680687
1603,0.1520066112
1602,0.1516623646
1601,0.1514279097
1600,0.1511421949
1599,0.1509153247
1598,0.1505524218
1597,0.1502802223
1596,0.1500535458
1595,0.1497639418
1594,0.149475947
1593,0.1492623985
1592,0.1489527822
1591,0.1486552954
1590,0.1484652162
1589,0.1482377201
1588,0.1479596943
1587,0.1476693004
1586,0.1474992335
1585,0.1472397745
1584,0.1470649838
1583,0.1468122452
1582,0.1466346383
1581,0.1463961452
1580,0.1461425275
1579,0.1459617168
1578,0.1457236558
1577,0.1454862058
1576,0.1452517807
1575,0.1451116204
1574,0.1449641734
1573,0.1447602957
1572,0.1445100456
1571,0.144344613
1570,0.144139871
1569,0.1440245211
1568,0.1438086182
1567,0.1436500698
1566,0.1434101462
1565,0.1432777047
1564,0.1431132406
1563,0.1429367512
1562,0.1428106427
1561,0.1426257044
1560,0.1424437314
1559,0.1423229873
1558,0.1421222389
1557,0.1419792473
1556,0.1419026852
1555,0.1416882277
1554,0.1415365934
1553,0.1414322853
1552,0.1412322521
1551,0.1410652697
1550,0.1409897208
1549,0.140888989
1548,0.1407348365
1547,0.1405912191
1546,0.1404300183
1545,0.1403473318
1544,0.1402027011
1543,0.1401307136
1542,0.1399580687
1541,0.1397758573
1540,0.1397157907
1539,0.1396148205
1538,0.1394971311
1537,0.13935332
1536,0.1392767876
1535,0.1391913891
1534,0.1390906572
1533,0.1390335709
1532,0.1388987154
1531,0.138708964
1530,0.1386400908
1529,0.1385796517
1528,0.1384832114
1527,0.1383526623
1526,0.138285026
1525,0.1381752044
1524,0.138108775
1523,0.1380212009
1522,0.1379214674
1521,0.1378854811
1520,0.1377903074
1519,0.1376730055
1518,0.1376203299
1517,0.137524575
1516,0.137436077
1515,0.1373554021
1514,0.1373237967
1513,0.1372475922
1512,0.137153089
1511,0.1370631754
1510,0.1370206922
1509,0.1369929761
1508,0.1369599104
1507,0.1368127465
1506,0.1367137581
1505,0.1367030889
1504,0.1366130859
1503,0.1366190165
1502,0.1365401745
1501,0.1364073902
1500,0.136348784
1499,0.1363239437
1498,0.1362987906
1497,0.1362508237
1496,0.136180684
1495,0.1360803246
1494,0.1360937804
1493,0.1360518485
1492,0.1359381974
1491,0.1359176636
1490,0.1358763576
1489,0.1357845217
1488,0.135802716
1487,0.1357102096
1486,0.1357212216
1485,0.1355950683
1484,0.13559407
1483,0.1355671883
1482,0.1355468184
1481,0.1354797333
1480,0.1354436576
1479,0.1354466975
1478,0.1353223175
1477,0.1353356838
1476,0.1352392882
1475,0.1352092475
1474,0.1351594329
1473,0.1351978034
1472,0.1351711154
1471,0.1350381672
1470,0.1350309998
1469,0.1350356936
1468,0.1350299716
1467,0.1349797398
1466,0.1349209398
1465,0.1348685324
1464,0.1348063797
1463,0.1348326504
1462,0.1348335743
1461,0.1347615719
1460,0.1347109526
1459,0.1347107142
1458,0.1346449107
1457,0.1346655935
1456,0.1346284598
1455,0.1345656812
1454,0.1345530897
1453,0.1344838291
1452,0.1344638914
1451,0.1345048547
1450,0.1344909519
1449,0.1344257146
1448,0.13437213
1447,0.1343179643
1446,0.1343512833
1445,0.1343223751
1444,0.13428545
1443,0.1342321634
1442,0.1342232823
1441,0.1342202425
1440,0.1341577023
1439,0.1341282874
1438,0.1341657341
1437,0.1341254711
1436,0.1340951174
1435,0.1340325624
1434,0.1340336204
1433,0.1340036541
1432,0.1339757442
1431,0.1340135336
1430,0.1338843852
1429,0.1338511556
1428,0.1339216232
1427,0.1338614374
1426,0.1338360757
1425,0.133782953
1424,0.1337132901
1423,0.1337743551
1422,0.1337296963
1421,0.1336781085
1420,0.1337047219
1419,0.1336415857
1418,0.1336249709
1417,0.133631587
1416,0.1335812062
1415,0.1335982829
1414,0.1334851682
1413,0.133548215
1412,0.1335279644
1411,0.1334024817
1410,0.1333938986
1409,0.1334321499
1408,0.1334171295
1407,0.1334016025
1406,0.1333860457
1405,0.1333873123
1404,0.1333554387
1403,0.1332903057
1402,0.133245334
1401,0.1333382577
1400,0.1334225386
1399,0.1332548708
1398,0.1331746578
1397,0.1331631243
1396,0.1332263798
1395,0.1332705915
1394,0.1331573874
1393,0.1330902576
1392,0.1331908405
1391,0.1330653578
1390,0.1329329014
1389,0.1329440475
1388,0.1329903901
1387,0.1329548657
1386,0.1329254508
1385,0.1328656822
1384,0.1329146177
1383,0.1329917908
1382,0.1330983788
1381,0.1330150962
1380,0.1329240352
1379,0.1328223795
1378,0.1329053044
1377,0.1329343021
1376,0.1328649074
1375,0.1327809095
1374,0.1327202916
1373,0.1326112449
1372,0.132642433
1371,0.1326535344
1370,0.1326089203
1369,0.1325264126
1368,0.1325232834
1367,0.1325651556
1366,0.1324852109
1365,0.1324101985
1364,0.1324986964
1363,0.1323538423
1362,0.1325326562
1361,0.1325403452
1360,0.132419616
1359,0.132406339
1358,0.1323989928
1357,0.1323471069
1356,0.1323186308
1355,0.1322541535
1354,0.13229087
1353,0.1323477775
1352,0.1323148012
1351,0.1323182434
1350,0.1322846115
1349,0.1322910041
1348,0.1322809607
1347,0.1322919875
1346,0.132283181
1345,0.1322811097
1344,0.1322452277
1343,0.1322191954
1342,0.1322531998
1341,0.1322456151
1340,0.1322985888
1339,0.1322494745
1338,0.1322824359
1337,0.132268399
1336,0.1323016435
1335,0.1322615594
1334,0.1323221475
1333,0.1322753131
1332,0.1323052943
1331,0.1322649568
1330,0.13230066
1329,0.1323381215
1328,0.1322869062
1327,0.1323444694
1326,0.1323524415
1325,0.132353738
1324,0.1323817223
1323,0.1323625892
1322,0.1323757172
1321,0.1324330568
1320,0.13244012
1319,0.1324770302
1318,0.1324753016
1317,0.1325071901
1316,0.1325070262
1315,0.1325347722
1314,0.1325231344
1313,0.1325996816
1312,0.1325702816
1311,0.1326765418
1310,0.1326735318
1309,0.1327232867
1308,0.1327135414
1307,0.1327875853
1306,0.1328128278
1305,0.1328792572
1304,0.1328787208
1303,0.1329399347
1302,0.1329063922
1301,0.1330598295
1300,0.133073017
1299,0.1330896467
1298,0.1331491917
1297,0.1331536621
1296,0.1331744492
1295,0.1333115101
1294,0.1333525777
1293,0.133345291
1292,0.1334203929
1291,0.1334617585
1290,0.1335935295
1289,0.133675456
1288,0.1336632073
1287,0.1337426305
1286,0.1337527037
1285,0.133881703
1284,0.1339757442
1283,0.1340292394
1282,0.1340907216
1281,0.1341996193
1280,0.1342276782
1279,0.1342945397
1278,0.1344060749
1277,0.1344789118
1276,0.1345413774
1275,0.1346152723
1274,0.1347516179
1273,0.1348241121
1272,0.1349224895
1271,0.1350495368
1270,0.1350954771
1269,0.1352283061
1268,0.1353092045
1267,0.1354563832
1266,0.1355518401
1265,0.1356188953
1264,0.1357885897
1263,0.1358672678
1262,0.1359677911
1261,0.1360916197
1260,0.1362376511
1259,0.1363213211
1258,0.1364594549
1257,0.1365869939
1256,0.136726141
1255,0.1368812919
1254,0.1369727254
1253,0.1370892227
1252,0.1372555792
1251,0.1374270469
1250,0.137521863
1249,0.1376639307
1248,0.1378302574
1247,0.1379617006
1246,0.1380767971
1245,0.1383036822
1244,0.1384728551
1243,0.1385886967
1242,0.1387275904
1241,0.1388552934
1240,0.1390171349
1239,0.1392306685
1238,0.1394143701
1237,0.1395668387
1236,0.139726609
1235,0.1398498565
1234,0.1400494128
1233,0.1402996331
1232,0.1404454112
1231,0.140604794
1230,0.1407586783
1229,0.1409680247
1228,0.1412031949
1227,0.1414086968
1226,0.1415613294
1225,0.141744554
1224,0.1419728994
1223,0.1421312243
1222,0.142427966
1221,0.1426025182
1220,0.1428158879
1219,0.142966792
1218,0.1432448328
1217,0.1434586644
1216,0.1437138617
1215,0.1439189017
1214,0.1441673189
1213,0.1444006264
1212,0.1446223855
1211,0.1449227929
1210,0.1451479197
1209,0.1453930736
1208,0.1456093788
1207,0.1459133476
1206,0.1461341828
1205,0.1464286745
1204,0.1467579454
1203,0.1469323635
1202,0.147249192
1201,0.1475306898
1200,0.1478009075
1199,0.147934258
1198,0.1482131034
1197,0.1484925747
1196,0.1487660855
1195,0.1490796655
1194,0.1494051814
1193,0.1497040093
1192,0.1499873549
1191,0.1502585709
1190,0.1505640596
1189,0.1508814991
1188,0.1511961967
1187,0.1515270174
1186,0.1518128067
1185,0.1521362662
1184,0.1524635702
1183,0.1527812183
1182,0.1531231105
1181,0.1534095407
1180,0.1537507921
1179,0.1541030109
1178,0.154365465
1177,0.1546996981
1176,0.1550308615
1175,0.1553471684
1174,0.1556720883
1173,0.156031996
1172,0.1563148946
1171,0.1566268057
1170,0.1569772363
1169,0.1573379934
1168,0.1576239914
1167,0.1579570323
1166,0.1582470834
1165,0.1585668325
1164,0.1589453667
1163,0.1592914462
1162,0.1595551372
1161,0.1599059254
1160,0.1602143645
1159,0.1605696976
1158,0.1609400064
1157,0.161259532
1156,0.1615792513
1155,0.161884293
1154,0.1622810811
1153,0.1626438648
1152,0.1629755348
1151,0.163354665
1150,0.1637177765
1149,0.1640413851
1148,0.1644714922
1147,0.1648881435
1146,0.1652715653
1145,0.1656327993
1144,0.1660536677
1143,0.1664996445
1142,0.1669052392
1141,0.1673725992
1140,0.1677529514
1139,0.1682639271
1138,0.1687127203
1137,0.1691572219
1136,0.1696280837
1135,0.1701440364
1134,0.1706264317
1133,0.1711641401
1132,0.1716896892
1131,0.172173351
1130,0.1726840138
1129,0.1732376218
1128,0.1737732589
1127,0.1743156165
1126,0.1748716384
1125,0.1754375845
1124,0.1759787798
1123,0.1765820831
1122,0.1771636605
1121,0.1776840091
1120,0.1782788187
1119,0.1788777113
1118,0.1794194579
1117,0.1800092757
1116,0.180561915
1115,0.1811141223
1114,0.181668967
1113,0.182286039
1112,0.1828318387
1111,0.1833796054
1110,0.1839405894
1109,0.1844452918
1108,0.1849794835
1107,0.1855348498
1106,0.1860693842
1105,0.186496377
1104,0.1869967431
1103,0.1874755621
1102,0.1879448146
1101,0.1884248257
1100,0.1888224185
1099,0.1892548203
1098,0.1896132976
1097,0.1900643706
1096,0.190383032
1095,0.1907587051
1094,0.1910736561
1093,0.191390723
1092,0.1916768849
1091,0.1919994205
1090,0.1921970695
1089,0.1924831867
1088,0.1927787662
1087,0.1929541975
1086,0.1931726485
1085,0.1933329254
1084,0.1935372055
1083,0.1937373281
1082,0.1939422041
1081,0.1941189617
1080,0.1942412555
1079,0.1944155842
1078,0.1946031451
1077,0.1947107762
1076,0.1949088871
1075,0.1950296164
1074,0.1952147335
1073,0.1954681724
1072,0.1956184208
1071,0.1958388984
1070,0.196018368
1069,0.1962319314
1068,0.1963930577
1067,0.1966997087
1066,0.1969112754
1065,0.1971994191
1064,0.1973732263
1063,0.1976932585
1062,0.1980060488
1061,0.198296994
1060,0.1986231953
1059,0.1988858283
1058,0.1991945207
1057,0.1995881051
1056,0.1999170333
1055,0.2003002465
1054,0.2006082237
1053,0.2009722888
1052,0.2013718188
1051,0.2017656565
1050,0.2022143602
1049,0.2025643885
1048,0.2029401958
1047,0.2033389658
1046,0.2036666125
1045,0.2040674686
1044,0.2044645846
1043,0.2048273534
1042,0.2051516771
1041,0.205551073
1040,0.205828622
1039,0.2060804218
1038,0.2063961178
1037,0.2067757398
1036,0.2070582062
1035,0.2072000802
1034,0.207454145
1033,0.2076535672
1032,0.2078597695
1031,0.2080320418
1030,0.2081848681
1029,0.2082797736
1028,0.2083141953
1027,0.2084704489
1026,0.2086064368
1025,0.2086792588
1024,0.2086229324
1023,0.2085652649
1022,0.2085814178
1021,0.208568275
1020,0.2085119635
1019,0.2084088027
1018,0.2082688957
1017,0.2081925571
1016,0.2080729604
1015,0.2079504281
1014,0.2078035772
1013,0.2075745314
1012,0.2074299753
1011,0.2072809786
1010,0.2070990652
1009,0.2068541348
1008,0.2066823244
1007,0.2064417154
1006,0.2062065452
1005,0.2060272992
1004,0.2057750672
1003,0.2055177093
1002,0.2052224725
1001,0.2049330622
1000,0.2047311068
999,0.2043940425
998,0.2041471899
997,0.2038111538
996,0.2035121918
995,0.2031854093
994,0.202794984
993,0.20254682
992,0.2021461725
991,0.2018163651
990,0.201473698
989,0.2010419965
988,0.200757876
987,0.2003794461
986,0.2001205832
985,0.1996506602
984,0.1992754042
983,0.1988639385
982,0.1984923333
981,0.1981378496
980,0.19779782
979,0.1974689066
978,0.1970894933
977,0.1966561079
976,0.1963588446
975,0.1960361004
974,0.1957129389
973,0.19544442
972,0.1950505078
971,0.1947029531
970,0.1944434792
969,0.1941531152
968,0.1937654316
967,0.1935004145
966,0.1932534575
965,0.1929039508
964,0.1926806867
963,0.1923926622
962,0.1921040714
961,0.1917911172
960,0.1915382445
959,0.1913222373
958,0.1909768879
957,0.1906088889
956,0.1904041022
955,0.1900921166
954,0.1897465885
953,0.1895263791
952,0.189128831
951,0.1888664812
950,0.1885265857
949,0.1881646514
948,0.1877567023
947,0.1874011904
946,0.1870300323
945,0.1868357509
944,0.1863489002
943,0.1858862191
942,0.1855088472
941,0.1851956546
940,0.1849395782
939,0.1845034063
938,0.1841381192
937,0.1837776452
936,0.1833678782
935,0.1828710437
934,0.1825333685
933,0.1821760833
932,0.1816059649
931,0.181501925
930,0.1809950769
929,0.1807617992
928,0.1803461313
927,0.1799083203
926,0.1794239879
925,0.1791018099
924,0.1785615236
923,0.1783275604
922,0.1778928787
921,0.1774537563
920,0.1770892888
919,0.1766887307
918,0.1762953848
917,0.1757536381
916,0.175208047
915,0.1749945134
914,0.1748386025
913,0.1743683368
912,0.1738907695
911,0.1734789759
910,0.1730936468
909,0.1727064401
908,0.172288999
907,0.1720754951
906,0.1715698242
905,0.1710987687
904,0.1708892733
903,0.1705980152
902,0.170094043
901,0.1699844599
900,0.1694558114
899,0.1729067117
898,0.1667476892
897,0.1705682278
896,0.1813549846
895,0.171234861
894,0.1703460366
893,0.1670699865
892,0.1699840724
891,0.1674697697
890,0.1697678864
889,0.1693658829
888,0.1712298393
887,0.1673847288
886,0.1693278849
885,0.1660809517
884,0.1700624526
883,0.1662195027
882,0.1683277786
881,0.1679418087
880,0.1674540043
879,0.1651735604
878,0.1652859151
877,0.1664494276
876,0.1652271301
875,0.1611150056
874,0.1674536318
873,0.1660482883
872,0.1658543348
871,0.1658467054
870,0.1630877852
869,0.1634620279
868,0.1645956635
867,0.1621770114
866,0.1627490669
865,0.1631086618
864,0.1644593626
863,0.1622046977
862,0.1637987792
861,0.1626448482
860,0.161925599
859,0.1622033119
858,0.1619368643
857,0.1638412327
856,0.1616263837
855,0.1606928259
854,0.161355719
853,0.1615825593
852,0.1618758291
851,0.1622381359
850,0.1619654
849,0.161934495
848,0.1615986675
847,0.1606301665
846,0.1605452597
845,0.1616284847
844,0.1616242826
843,0.1611595452
842,0.1603841633
841,0.1605920196
840,0.1604746878
839,0.1606180668
838,0.1610649675
837,0.1603450626
836,0.1614244878
835,0.1604544967
834,0.1604524702
833,0.1606801152
832,0.1606798917
831,0.1606452316
830,0.1611933857
829,0.1617453396
828,0.1616320908
827,0.1609589159
826,0.1617482007
825,0.1616135091
824,0.1619924158
823,0.1618299931
822,0.1621863842
821,0.1619963348
820,0.1625323445
819,0.1626271158
818,0.1627568603
817,0.1635104865
816,0.1629683375
815,0.1633164287
814,0.1631189436
813,0.163383916
812,0.16368635
811,0.1640309989
810,0.164258182
809,0.1646914184
808,0.1646705121
807,0.1650343537
806,0.1658029109
805,0.1652636379
804,0.1655141711
803,0.1657304913
802,0.1658526212
801,0.166179508
800,0.1663046181
799,0.166622296
798,0.1669101864
797,0.1673601568
796,0.1675351262
795,0.1678387374
794,0.1680989563
793,0.1681676954
792,0.1684277952
791,0.1690204293
790,0.1690321565
789,0.1694078594
788,0.1694918424
787,0.1698703021
786,0.1698349714
785,0.1700201482
784,0.1705725193
783,0.1704586297
782,0.1708352268
781,0.1712197065
780,0.1713083982
779,0.1714844108
778,0.1720570326
777,0.1722444594
776,0.1724032909
775,0.1726152152
774,0.1731280088
773,0.1734473705
772,0.1742480695
771,0.1743263006
770,0.1748508066
769,0.1754660457
768,0.1755423993
767,0.1764688343
766,0.1762221903
765,0.1771346629
764,0.1775902212
763,0.178288728
762,0.1783554703
761,0.1789646
760,0.1800853759
759,0.1803991348
758,0.1806840599
757,0.1810602844
756,0.1816844642
755,0.1824130714
754,0.1828499883
753,0.1831668615
752,0.1834736317
751,0.1842544377
750,0.1846834123
749,0.185272336
748,0.1853893548
747,0.1858534515
746,0.186193198
745,0.1866373122
744,0.1866678596
743,0.187117368
742,0.1871601492
741,0.1873630136
740,0.1875932515
739,0.1878233254
738,0.1877116412
737,0.1878494918
736,0.1882165521
735,0.1882373989
734,0.1880857348
733,0.1879618466
732,0.1884851158
731,0.1882502586
730,0.1884356141
729,0.1885136515
728,0.1883968711
727,0.1884407699
726,0.1889001131
725,0.1889734119
724,0.1890598238
723,0.1888575256
722,0.18928276
721,0.1893749088
720,0.1894332319
719,0.1896127313
718,0.189695701
717,0.189826414
716,0.1899439692
715,0.1903345585
714,0.1907283068
713,0.1907335371
712,0.1908913553
711,0.1910232604
710,0.1913759261
709,0.1916311234
708,0.1916114837
707,0.1917360425
706,0.1920520216
705,0.1917961538
704,0.1918823868
703,0.1921254247
702,0.1923789978
701,0.1921960562
700,0.1921092719
699,0.1921371073
698,0.1920469999
697,0.1919715852
696,0.1920946538
695,0.1918778419
694,0.1918262988
693,0.1916835606
692,0.1914816052
691,0.1913110614
690,0.1911553741
689,0.1909070164
688,0.1907400787
687,0.1907059401
686,0.1905495971
685,0.1903898865
684,0.1901604533
683,0.1899576783
682,0.1897075623
681,0.1894674301
680,0.1894127727
679,0.1894147396
678,0.1891583353
677,0.18878223
676,0.1886574626
675,0.1886723787
674,0.1884387732
673,0.1881762296
672,0.1878893524
671,0.1878638566
670,0.1874254197
669,0.1874253005
668,0.1873393357
667,0.18695952
666,0.1868013293
665,0.1866220683
664,0.1864602715
663,0.1863238961
662,0.1861974448
661,0.1859940141
660,0.1859210879
659,0.1856328696
658,0.1857700199
657,0.1854890138
656,0.1854112893
655,0.1853174716
654,0.1851495802
653,0.1850967705
652,0.1848579496
651,0.1848625541
650,0.1849963665
649,0.1845757514
648,0.1843704581
647,0.1843188107
646,0.1842128932
645,0.1842613965
644,0.1840137839
643,0.1839907318
642,0.1836752594
641,0.1834943295
640,0.1832728535
639,0.1833966672
638,0.1831251085
637,0.1830561012
636,0.1829249263
635,0.1826364845
634,0.182554692
633,0.18246454
632,0.1822299957
631,0.1822440475
630,0.1822390854
629,0.1819796711
628,0.1819796413
627,0.181806609
626,0.1817758828
625,0.1815441102
624,0.181629166
623,0.1815152913
622,0.1814721972
621,0.1816043854
620,0.1812856197
619,0.1812101007
618,0.1812729686
617,0.1812518686
616,0.1813266128
615,0.1815385222
614,0.1813643426
613,0.1812074333
612,0.1813362837
611,0.1814230978
610,0.1816113889
609,0.1816553921
608,0.1818132102
607,0.1817662418
606,0.181887269
605,0.1821358353
604,0.1824458241
603,0.182619527
602,0.1827455312
601,0.1832748652
600,0.183292985
599,0.1837007105
598,0.1838950515
597,0.1840525717
596,0.1843708456
595,0.1846165359
594,0.1849795282
593,0.1852244437
592,0.1854009777
591,0.1854931414
590,0.1856147349
589,0.185896188
588,0.1861296594
587,0.1861368418
586,0.1863642484
585,0.1865182966
584,0.1865879893
583,0.1866751909
582,0.1867823452
581,0.1868001819
580,0.1866617054
579,0.1868605912
578,0.1869000345
577,0.1871682256
576,0.1872888207
575,0.1874537915
574,0.1877549142
573,0.1881375462
572,0.188397631
571,0.1886732131
570,0.1893988848
569,0.1893736273
568,0.1900635362
567,0.1904221624
566,0.1911072582
565,0.1915648431
564,0.1919325739
563,0.1925181895
562,0.1930647045
561,0.193384245
560,0.1939548701
559,0.1941882223
558,0.194806844
557,0.1951028407
556,0.1951766014
555,0.1955612749
554,0.1957428455
553,0.195748046
552,0.1958577484
551,0.1954684108
550,0.1952834427
549,0.1954465657
548,0.1953713447
547,0.195142597
546,0.1947440505
545,0.1947011799
544,0.1946223974
543,0.1944669336
542,0.1944215298
541,0.194191128
540,0.1943262368
539,0.1943943948
538,0.1946610063
537,0.194904834
536,0.1951602399
535,0.1956964433
534,0.1959795058
533,0.1964385509
532,0.1966383904
531,0.1974194646
530,0.1976677477
529,0.1980419457
528,0.1984105408
527,0.1988372952
526,0.1994356662
525,0.1995043457
524,0.2001202852
523,0.2000183314
522,0.2002787739
521,0.2003798485
520,0.2006006241
519,0.2007776052
518,0.2007334977
517,0.2006452829
516,0.2008414716
515,0.2007741481
514,0.200847894
513,0.2008352727
512,0.2010988742
511,0.2012149543
510,0.2013548613
509,0.2014964968
508,0.20178774
507,0.2020655274
506,0.2023831755
505,0.202838257
504,0.2031591237
503,0.2037927806
502,0.2043030411
501,0.2046127617
500,0.2055080682
499,0.2059403211
498,0.206594184
497,0.2071276009
496,0.2076290548
495,0.208228305
494,0.2086537778
493,0.208833307
492,0.2090024948
491,0.2091032416
490,0.2091508061
489,0.2086762488
488,0.2085884809
487,0.2083295733
486,0.2079455853
485,0.207629934
484,0.2073123008
483,0.2071144581
482,0.2067246139
481,0.2065743953
480,0.206492722
479,0.2064739019
478,0.2066037655
477,0.207047984
476,0.2073993534
475,0.2078230083
474,0.208464101
473,0.208775878
472,0.2095636725
471,0.2101700008
470,0.2105898112
469,0.2110938579
468,0.2116642743
467,0.2119324356
466,0.2122353464
465,0.2120605111
464,0.2120823711
463,0.2117658108
462,0.2117437124
461,0.21117118
460,0.2106577903
459,0.2104236186
458,0.2102295607
457,0.2098272592
456,0.2097229511
455,0.2096137851
454,0.2095844299
453,0.2095908076
452,0.2096997797
451,0.2102093548
450,0.2104935944
449,0.2108877152
448,0.2113251984
447,0.2115263194
446,0.2121253163
445,0.2125380188
444,0.2129960954
443,0.2137256265
442,0.2140865475
441,0.2145272046
440,0.2148012966
439,0.2148756385
438,0.2148803025
437,0.2153832763
436,0.2155130655
435,0.2154330164
434,0.2158043385
433,0.2163924724
432,0.2164516151
431,0.2170673907
430,0.2170857787
429,0.2173238397
428,0.2183291614
427,0.2186970115
426,0.2190637589
425,0.2195086181
424,0.2200163752
423,0.2206820697
422,0.2209931016
421,0.2211646289
420,0.2216620892
419,0.2219005525
418,0.2217487395
417,0.221992895
416,0.2219122052
415,0.2222950161
414,0.2224460244
413,0.2226270437
412,0.2229432315
411,0.2232556641
410,0.2233903855
409,0.2240918875
408,0.224900946
407,0.2252035737
406,0.2257724255
405,0.2267138362
404,0.2272289246
403,0.2280772477
402,0.2283751369
401,0.2290527225
400,0.2297029346
399,0.23062554
398,0.2308056802
397,0.2312237471
396,0.2314808816
395,0.2315775007
394,0.2320196778
393,0.2322441936
392,0.2324240655
391,0.2327112406
390,0.2330909073
389,0.2339698523
388,0.2340151519
387,0.2345854044
386,0.2352479249
385,0.2357870936
384,0.2361575067
383,0.2370497435
382,0.2378241122
381,0.2387862206
380,0.2392569035
379,0.240176782
378,0.2406885475
377,0.2415363342
376,0.242621243
375,0.2433098257
374,0.2440369576
373,0.2454155087
372,0.2461342216
371,0.2468948662
370,0.24736166
369,0.2481724024
368,0.2485087067
367,0.2491074204
366,0.2497460097
365,0.2506380081
364,0.2505229712
363,0.2508268356
362,0.2516398132
361,0.2521038055
360,0.2532222271
359,0.2539735138
358,0.2555052936
357,0.2559719682
356,0.2580115497
355,0.2588774264
354,0.2599272728
353,0.2605363727
352,0.2616374195
351,0.2635169029
350,0.2641245127
349,0.2623401284
348,0.2631926239
347,0.2635734677
346,0.2642519176
345,0.2658057213
344,0.2670661211
343,0.2674084902
342,0.2682325542
341,0.2690712512
340,0.2703936696
339,0.2719369531
338,0.2728406787
337,0.2732108831
336,0.275100112
335,0.2772867084
334,0.2777836025
333,0.2785783708
332,0.2800703049
331,0.2812090516
330,0.2825330496
329,0.2833033204
328,0.2837352157
327,0.2857559323
326,0.2865571678
325,0.2881295979
324,0.2892877162
323,0.291236341
322,0.2931834161
321,0.295473963
320,0.2972510755
319,0.2983562946
318,0.3000015318
317,0.3022631109
316,0.3037706017
315,0.3051663637
314,0.307492137
313,0.3098647594
312,0.3111487329
311,0.3134119213
310,0.3155685365
309,0.3166673183
308,0.3191169202
307,0.3219971955
306,0.323905617
305,0.3265376091
304,0.3288407624
303,0.331238389
302,0.3341542482
301,0.3360480368
300,0.3382978737
299,0.3404435813
298,0.3431590199
297,0.3455117345
296,0.3478576839
295,0.3508564532
294,0.3535742164
293,0.3564862311
292,0.3593022823
291,0.361384511
290,0.3644919395
289,0.3672454953
288,0.3694984615
287,0.3721994162
286,0.3748132885
285,0.377571404
284,0.379871428
283,0.3821130097
282,0.3851975203
281,0.3861743212
280,0.3884036839
279,0.3899880052
278,0.391436547
277,0.393910557
276,0.3945390582
275,0.3959089816
274,0.3965421915
273,0.3976003528
272,0.3984529674
271,0.3987967074
270,0.3988659084
269,0.3983620405
268,0.3985410929
267,0.3977889419
266,0.397423774
265,0.3965587914
264,0.3961852491
263,0.3949885666
262,0.3942321241
261,0.39255023
260,0.3915156126
259,0.3902709186
258,0.3885851204
257,0.3867269754
256,0.3853450119
255,0.3838053942
254,0.3817740381
253,0.379239291
252,0.3766474724
251,0.3740893006
250,0.3712397218
249,0.3686703742
248,0.3649838567
247,0.361692518
246,0.3584539294
245,0.3544522226
244,0.3501911461
243,0.3460398912
242,0.3429276049
241,0.3389712274
240,0.3348099887
239,0.3315977752
238,0.328104943
237,0.3250869513
236,0.3219268918
235,0.3185960054
234,0.3163777888
233,0.3140270412
232,0.3118011653
231,0.3097394705
230,0.3080999851
229,0.3064805269
228,0.3050577939
227,0.3044147491
226,0.3044880629
225,0.3052217662
224,0.307790786
223,0.3114564717
222,0.3166842163
221,0.3244993985
220,0.3344587088
219,0.3473728895
218,0.3626588285
217,0.3803713918
216,0.4007559717
215,0.4229660332
214,0.4463500381
213,0.4692771137
212,0.4930462837
211,0.5139219761
210,0.5346485972
209,0.5511026382
208,0.5648229122
207,0.5747185946
206,0.5819988251
205,0.5831150413
204,0.5823052526
203,0.5795846581
202,0.5732374787
201,0.5652924776
200,0.5546978712
