242.580078, 4823.188501, 4853.702574, 4197.948556, 3400.148605, 2732.301664, 2450.705600, 2500.284406, 2535.620494
242.392578, 4797.044772, 4888.191434, 4198.648864, 3449.650252, 2724.062985, 2465.191186, 2529.965293, 2538.619984
242.201172, 4824.018270, 4851.838983, 4240.632661, 3398.320167, 2764.494732, 2433.626929, 2526.566091, 2484.487080
242.013672, 4763.186537, 4845.816717, 4205.777105, 3447.323739, 2760.839292, 2440.011285, 2514.321298, 2521.215222
241.822266, 4788.432271, 4879.422162, 4251.243711, 3503.233552, 2752.300924, 2445.900180, 2527.285683, 2530.185993
241.632813, 4795.431625, 4917.557566, 4173.007098, 3475.209109, 2774.178768, 2423.323454, 2550.317183, 2542.269235
241.445313, 4816.581361, 4885.064675, 4202.222798, 3422.549690, 2797.843363, 2481.108771, 2508.817438, 2559.494136
241.255859, 4819.670436, 4870.064717, 4170.452101, 3516.148084, 2751.592496, 2418.282673, 2516.794920, 2492.367738
241.066406, 4811.510167, 4888.342642, 4209.820677, 3493.185302, 2750.319792, 2435.763676, 2507.140854, 2526.999252
240.878906, 4744.363333, 4827.307063, 4223.589276, 3459.400352, 2792.120286, 2468.425574, 2497.211573, 2516.062780
240.689453, 4827.213501, 4921.333006, 4231.058173, 3432.507512, 2765.124242, 2470.348072, 2518.120185, 2521.956578
240.500000, 4840.056251, 4931.461588, 4228.128868, 3456.868923, 2760.766578, 2443.944185, 2531.146500, 2561.795220
240.310547, 4785.301254, 4797.774656, 4222.802328, 3482.332112, 2745.291308, 2450.691377, 2498.148348, 2548.531290
240.121094, 4859.074813, 4891.501646, 4232.173938, 3442.415931, 2799.535666, 2474.627166, 2552.084615, 2558.579758
239.931641, 4777.106601, 4903.467245, 4258.432757, 3412.435918, 2811.186634, 2448.216541, 2525.642318, 2545.614505
239.744141, 4842.796386, 4854.923389, 4284.449299, 3429.869053, 2748.175432, 2493.345997, 2532.394346, 2551.078401
239.554688, 4851.252262, 4898.606276, 4263.378977, 3485.008797, 2756.423679, 2456.771722, 2505.864413, 2591.752511
239.367188, 4798.418683, 4917.365844, 4219.329199, 3507.743608, 2761.868322, 2461.920276, 2475.176183, 2531.412374
239.177734, 4774.824833, 4896.404045, 4208.644999, 3379.894762, 2782.638298, 2450.157732, 2528.051438, 2542.491055
238.986328, 4809.464931, 4873.280260, 4251.905065, 3454.731285, 2748.580488, 2468.489991, 2512.863712, 2564.951209
238.796875, 4818.402236, 4881.011974, 4199.211941, 3462.850072, 2736.097944, 2484.350007, 2513.343341, 2591.676715
238.609375, 4777.490741, 4829.923245, 4203.316935, 3470.574539, 2764.814388, 2483.094633, 2500.159159, 2573.660079
238.421875, 4767.736118, 4888.721354, 4224.545704, 3490.693254, 2811.732512, 2485.218985, 2491.467135, 2549.143210
238.230469, 4837.385177, 4833.603509, 4260.299758, 3529.480005, 2747.668634, 2497.749798, 2504.029644, 2614.843008
238.041016, 4792.692909, 4902.230120, 4239.385945, 3457.129595, 2785.696443, 2474.539952, 2518.542825, 2567.757545
237.853516, 4791.730398, 4896.250915, 4257.269565, 3481.072025, 2767.686203, 2443.752063, 2506.750137, 2538.817467
237.664063, 4774.041462, 4895.177137, 4257.766349, 3529.705526, 2771.617561, 2497.533974, 2534.394172, 2590.323940
237.474609, 4788.776338, 4868.822130, 4246.500535, 3500.294435, 2792.785919, 2475.154581, 2543.378894, 2549.886147
237.285156, 4801.729047, 4912.560871, 4201.913638, 3437.110410, 2790.508163, 2453.384302, 2537.870022, 2558.811755
237.097656, 4820.769653, 4871.806267, 4260.854627, 3476.039150, 2794.744607, 2469.302604, 2510.429377, 2604.640780
236.908203, 4835.803849, 4937.874509, 4242.180179, 3489.760110, 2806.854668, 2497.374902, 2544.067515, 2529.479355
236.718750, 4797.289399, 4905.149618, 4227.208544, 3451.527061, 2809.723924, 2492.931133, 2519.390386, 2528.329072
236.527344, 4812.583745, 4962.613406, 4274.309893, 3484.150466, 2789.230152, 2504.434902, 2581.593710, 2593.542951
236.339844, 4825.148912, 4887.329869, 4230.397247, 3461.576164, 2813.401751, 2463.050556, 2543.292859, 2566.937965
236.150391, 4803.764145, 4880.388642, 4302.277990, 3518.302638, 2800.153494, 2474.652369, 2537.530950, 2610.405563
235.960938, 4807.836263, 4836.323031, 4236.207663, 3537.064804, 2835.714037, 2486.551304, 2518.123798, 2607.553243
235.771484, 4803.363825, 4912.139912, 4257.537579, 3489.889974, 2774.172181, 2515.428579, 2528.241244, 2615.381807
235.583984, 4824.913909, 4924.144531, 4297.576243, 3501.679531, 2801.443291, 2510.353342, 2514.107042, 2565.581860
235.394531, 4849.853010, 4874.145683, 4226.178019, 3478.692071, 2767.847035, 2501.661681, 2523.072899, 2613.524688
235.205078, 4808.623283, 4984.564257, 4216.890427, 3483.300193, 2807.591023, 2477.378481, 2535.123928, 2597.664425
235.015625, 4805.986412, 4893.126123, 4247.517678, 3454.860255, 2814.041404, 2511.469174, 2529.622961, 2622.367104
234.826172, 4846.064356, 4940.995954, 4261.180278, 3492.899974, 2816.393739, 2502.718281, 2490.797587, 2592.056176
234.636719, 4780.515011, 4957.072720, 4239.573972, 3458.069924, 2796.546368, 2500.816212, 2541.377819, 2601.489957
234.449219, 4758.783256, 4979.506742, 4265.776126, 3504.991154, 2821.525443, 2487.087815, 2551.111747, 2603.073569
234.257813, 4748.211899, 4928.276803, 4250.488506, 3474.894668, 2847.352947, 2501.971372, 2501.826897, 2562.314279
234.068359, 4831.388665, 4847.877953, 4261.662825, 3496.492557, 2799.727778, 2512.586398, 2556.454436, 2593.729178
233.880859, 4719.067760, 4969.167556, 4239.592437, 3505.978207, 2850.282805, 2543.891197, 2532.031931, 2614.356171
233.691406, 4754.074510, 4921.874315, 4229.853535, 3544.078895, 2775.190038, 2486.017703, 2533.231343, 2617.238714
233.501953, 4758.449911, 4928.230026, 4262.122943, 3511.062438, 2805.931191, 2481.332138, 2508.062180, 2594.934550
233.312500, 4771.677676, 4942.505718, 4244.262537, 3494.363061, 2797.885225, 2492.820581, 2552.410594, 2613.662054
233.123047, 4728.644512, 4953.828703, 4201.519953, 3552.980301, 2853.183023, 2521.036786, 2557.003541, 2585.108452
232.935547, 4721.267987, 4903.676289, 4297.050959, 3506.464642, 2816.428281, 2521.085434, 2536.078129, 2634.082366
232.744141, 4741.555096, 4904.531422, 4246.034956, 3554.269658, 2848.573127, 2467.558447, 2505.211634, 2619.447974
232.556641, 4826.885506, 4927.172966, 4302.049806, 3547.770781, 2799.650725, 2491.418384, 2556.433630, 2606.150652
232.365234, 4797.369059, 4931.745229, 4285.621298, 3560.775815, 2801.142117, 2482.218813, 2517.969125, 2609.522847
232.175781, 4758.139843, 4934.306397, 4311.647581, 3530.361155, 2835.479932, 2501.005032, 2518.574862, 2611.746559
231.988281, 4777.085474, 4929.569980, 4289.347019, 3539.703861, 2813.192749, 2555.245507, 2535.334717, 2629.423054
231.798828, 4752.585720, 4956.949116, 4221.451736, 3503.514203, 2820.121503, 2495.385647, 2481.913067, 2573.396167
231.609375, 4768.461180, 4987.815878, 4339.790201, 3534.344042, 2825.694636, 2494.518125, 2552.223495, 2629.005678
231.417969, 4819.231734, 4961.497180, 4312.975409, 3531.320726, 2800.841357, 2512.294899, 2529.310849, 2600.208197
231.230469, 4715.928815, 4910.036982, 4237.135018, 3536.315087, 2814.365978, 2540.645348, 2549.263869, 2622.691602
231.042969, 4787.999319, 4922.505485, 4300.632755, 3578.508746, 2849.850679, 2497.954920, 2535.249506, 2663.289667
230.853516, 4791.157223, 4982.823817, 4257.492047, 3527.704367, 2838.177264, 2532.343679, 2514.328567, 2640.517829
230.664063, 4794.942765, 4994.383665, 4343.166537, 3591.711514, 2823.215042, 2545.585043, 2591.357406, 2641.943673
230.474609, 4768.617429, 5023.158326, 4331.321832, 3590.189823, 2894.686642, 2487.083108, 2554.518906, 2656.274360
230.283203, 4739.572227, 4949.990413, 4302.961402, 3574.248179, 2825.323500, 2463.350289, 2551.422115, 2634.144986
230.093750, 4779.502324, 4936.420399, 4291.315662, 3586.113151, 2849.433200, 2506.120772, 2548.794959, 2622.975264
229.906250, 4794.204277, 4957.150173, 4273.889162, 3619.177966, 2844.888768, 2524.362635, 2548.418352, 2627.331028
229.714844, 4803.632669, 4950.580413, 4347.217554, 3569.624733, 2861.062338, 2546.020623, 2529.669784, 2635.794618
229.527344, 4790.758309, 4925.588350, 4277.814965, 3604.790862, 2850.379613, 2545.986122, 2512.699884, 2620.844676
229.335938, 4781.117695, 4973.590154, 4313.675002, 3532.427504, 2851.109388, 2508.291215, 2537.017239, 2606.874905
229.148438, 4787.977847, 4963.936560, 4342.471360, 3611.654109, 2845.948902, 2499.814898, 2524.254075, 2614.955775
228.958984, 4790.709794, 4890.781966, 4325.231698, 3602.618811, 2844.179620, 2516.977109, 2596.498739, 2647.407025
228.771484, 4815.171384, 4998.501533, 4292.039547, 3578.632329, 2855.329101, 2480.408130, 2518.587070, 2651.618223
228.580078, 4748.059214, 4977.771659, 4351.720143, 3589.721714, 2895.445601, 2544.777668, 2512.580170, 2610.661417
228.390625, 4730.574520, 4948.424761, 4363.686280, 3581.795522, 2857.773662, 2535.760726, 2535.312010, 2641.547167
228.201172, 4742.226562, 4973.493630, 4309.021791, 3586.570759, 2892.436006, 2525.681258, 2545.540600, 2692.071304
228.011719, 4776.992911, 4987.571837, 4351.026194, 3574.630581, 2850.587733, 2500.973167, 2535.706166, 2664.295910
227.822266, 4750.558319, 5023.120642, 4350.543083, 3606.964113, 2848.781312, 2532.500037, 2513.737909, 2682.636190
227.634766, 4743.180424, 4977.021348, 4339.469352, 3576.705570, 2903.957120, 2520.810139, 2557.908760, 2641.932291
227.443359, 4811.194968, 5002.773708, 4314.296632, 3634.767624, 2860.591440, 2548.082053, 2554.698849, 2717.262767
227.255859, 4792.309759, 4970.189655, 4344.928705, 3584.120976, 2898.643022, 2547.680189, 2458.956690, 2669.081594
227.064453, 4761.731503, 4948.707998, 4311.325246, 3614.977077, 2855.208373, 2512.194425, 2528.956705, 2709.307748
226.875000, 4744.747057, 5004.544341, 4331.283195, 3587.029237, 2891.879836, 2529.110546, 2542.428705, 2665.209530
226.685547, 4728.237995, 4894.968991, 4301.463287, 3615.157995, 2857.953422, 2537.478713, 2546.020651, 2670.386186
226.496094, 4714.939591, 4916.039068, 4349.718252, 3630.332487, 2870.988069, 2582.433404, 2554.673881, 2693.933454
226.308594, 4740.045473, 4984.761756, 4356.550323, 3585.386517, 2928.593831, 2530.493195, 2547.738781, 2661.548295
226.119141, 4759.851055, 4953.353195, 4352.106151, 3583.569917, 2903.331488, 2557.520416, 2528.243767, 2679.168075
225.929688, 4715.032333, 4944.280905, 4335.013383, 3615.282886, 2886.363113, 2540.856831, 2534.848596, 2667.269243
225.740234, 4790.302598, 4974.248333, 4369.929321, 3550.316081, 2873.706433, 2530.256709, 2584.397451, 2665.490504
225.550781, 4791.258691, 4973.128251, 4370.775959, 3610.082372, 2884.861820, 2542.673007, 2536.601277, 2663.119714
225.359375, 4730.079063, 5001.109496, 4360.711429, 3605.646043, 2912.773578, 2591.161964, 2580.298172, 2728.254914
225.169922, 4754.745648, 4958.899435, 4382.500991, 3673.264993, 2905.606298, 2553.442908, 2539.683349, 2704.536756
224.982422, 4730.923493, 5005.867650, 4390.288818, 3606.862542, 2906.528613, 2579.817664, 2546.950444, 2713.046367
224.792969, 4715.129610, 5015.011567, 4380.221408, 3620.368207, 2878.609977, 2552.940695, 2592.866137, 2720.540286
224.603516, 4764.078167, 4980.869430, 4356.145939, 3655.639511, 2927.371660, 2559.956695, 2511.252547, 2733.221282
224.416016, 4702.869670, 4989.494177, 4435.912102, 3595.049943, 2903.413033, 2560.096029, 2537.527012, 2680.689293
224.224609, 4747.896998, 4972.534529, 4321.228005, 3661.233310, 2883.894886, 2567.540940, 2523.279861, 2700.208679
224.035156, 4741.537182, 4985.708557, 4445.733362, 3622.373455, 2844.804699, 2558.739949, 2543.976317, 2721.285541
223.843750, 4713.613652, 4988.694569, 4371.965919, 3646.183945, 2884.938054, 2574.066261, 2503.947660, 2691.813292
223.654297, 4728.341598, 4939.868125, 4362.473588, 3638.660997, 2871.467781, 2589.293545, 2556.443408, 2749.052231
223.466797, 4709.098583, 4959.401854, 4363.543528, 3676.263980, 2885.099870, 2545.595337, 2569.221625, 2737.674904
223.277344, 4672.986902, 4979.408944, 4372.451529, 3603.949288, 2890.077819, 2580.874970, 2530.017814, 2697.461415
223.087891, 4767.303081, 5026.123272, 4356.315307, 3661.728684, 2861.353459, 2580.652958, 2595.096438, 2725.824484
222.898438, 4753.190105, 5035.108231, 4391.168543, 3630.444469, 2906.526741, 2600.228545, 2561.142212, 2707.334803
222.708984, 4666.989499, 5015.349134, 4346.112831, 3629.493671, 2892.183803, 2597.361037, 2564.853803, 2712.505626
222.519531, 4762.504065, 5039.418988, 4358.797944, 3627.992207, 2907.456276, 2568.311344, 2570.295471, 2750.312619
222.330078, 4721.583461, 5028.877422, 4345.558928, 3628.356260, 2924.156576, 2590.802676, 2544.533216, 2749.976323
222.138672, 4706.634542, 5046.020245, 4430.257273, 3632.005940, 2915.533792, 2620.713126, 2594.574687, 2748.138427
221.949219, 4709.712313, 4990.305948, 4383.496142, 3621.312068, 2888.185568, 2604.822897, 2582.600623, 2724.310584
221.759766, 4672.137299, 5060.622823, 4375.158068, 3624.277578, 2935.160988, 2599.559502, 2564.976346, 2726.884608
221.572266, 4726.423380, 5049.394705, 4416.664562, 3694.719745, 2891.666036, 2591.852228, 2540.538572, 2749.797996
221.380859, 4684.736395, 5012.137578, 4425.534979, 3675.408083, 2914.289896, 2604.514258, 2535.123926, 2727.401956
221.193359, 4796.446076, 5028.112773, 4393.120140, 3649.002542, 2936.377688, 2622.583046, 2565.237395, 2762.594492
221.001953, 4721.618290, 5014.500658, 4447.039483, 3671.490435, 2914.582193, 2592.782547, 2602.927590, 2729.664773
220.814453, 4732.941030, 5008.280309, 4435.754869, 3694.390130, 2923.745447, 2607.395729, 2534.869615, 2745.930080
220.623047, 4736.557771, 5058.603904, 4380.295081, 3646.371574, 2917.990872, 2637.945529, 2581.018098, 2757.464310
220.433594, 4701.657120, 5076.053995, 4418.220839, 3674.284207, 2948.602782, 2643.000632, 2567.726944, 2795.575526
220.244141, 4736.340375, 5041.609937, 4388.360058, 3679.556586, 2889.937292, 2636.836933, 2565.166128, 2792.662080
220.054688, 4672.220048, 5098.131378, 4393.774334, 3686.140869, 2923.884749, 2616.951328, 2569.640199, 2759.928047
219.865234, 4688.835561, 5069.520108, 4385.358934, 3648.758906, 2951.891726, 2626.799621, 2604.349340, 2773.930621
219.675781, 4658.546845, 5061.952401, 4387.801874, 3663.489939, 2949.310561, 2579.075098, 2576.233111, 2801.748353
219.486328, 4650.595577, 5105.324483, 4393.540243, 3657.121818, 2936.568918, 2655.287320, 2584.351824, 2771.697850
219.296875, 4704.515954, 5128.571968, 4395.072389, 3703.015536, 2920.145485, 2578.492562, 2548.631070, 2777.108586
219.109375, 4669.112610, 5073.006781, 4391.505123, 3674.338940, 2946.355916, 2626.864690, 2548.408141, 2768.119071
218.917969, 4716.609628, 5135.247757, 4435.375143, 3710.615805, 2951.392128, 2619.746828, 2604.822897, 2772.907175
218.728516, 4707.297486, 5076.634783, 4442.899146, 3671.079521, 2942.276775, 2610.520234, 2599.103552, 2789.420429
218.539063, 4740.219626, 5099.999626, 4430.695756, 3698.052817, 2999.348880, 2628.210654, 2599.151928, 2778.789040
218.347656, 4719.408066, 5082.070037, 4471.896928, 3705.788281, 2965.259632, 2637.437811, 2584.999701, 2795.292096
218.158203, 4687.426905, 5084.211249, 4414.447347, 3737.571082, 2979.279574, 2643.157446, 2609.395089, 2813.608574
217.968750, 4709.399286, 5123.025679, 4500.144807, 3739.189439, 2923.353068, 2630.712036, 2564.849916, 2757.324596
217.781250, 4735.620137, 5100.563913, 4436.624593, 3703.519629, 2989.707466, 2619.467627, 2612.796906, 2809.243469
217.589844, 4716.601171, 5117.834074, 4464.355449, 3730.810804, 2991.855514, 2632.535168, 2598.794859, 2803.926298
217.402344, 4714.823075, 5075.186078, 4467.067729, 3716.655980, 2971.157885, 2617.549055, 2618.337400, 2811.208849
217.210938, 4748.978982, 5157.629490, 4472.180074, 3753.915632, 2996.928827, 2634.238597, 2587.382200, 2828.828312
217.021484, 4716.293623, 5099.937978, 4426.524327, 3750.004831, 2988.353710, 2588.503344, 2617.399864, 2795.241525
216.832031, 4751.623182, 5118.291392, 4392.876975, 3696.389079, 2961.946107, 2643.845094, 2604.390436, 2837.063396
216.640625, 4714.913771, 5075.405299, 4430.270195, 3766.765678, 2979.603031, 2627.901777, 2603.191115, 2842.770748
216.451172, 4746.027611, 5074.660640, 4462.883123, 3721.730422, 2978.488373, 2670.475411, 2583.244614, 2823.207416
216.261719, 4718.814112, 5156.343512, 4488.507220, 3771.811653, 2993.078691, 2644.165761, 2646.464545, 2802.520231
216.072266, 4727.115809, 5134.034078, 4471.966893, 3735.331860, 2996.495777, 2609.768789, 2612.636569, 2824.412084
215.882813, 4707.115166, 5123.084629, 4509.831830, 3776.015152, 3050.900871, 2613.729178, 2598.444485, 2815.608074
215.693359, 4711.737055, 5161.871974, 4507.883061, 3775.715232, 2953.386678, 2654.844050, 2631.415129, 2823.619583
215.505859, 4729.055703, 5119.896183, 4516.403312, 3743.724018, 3051.359533, 2640.830022, 2660.078452, 2825.831248
215.316406, 4678.946301, 5132.538049, 4511.278495, 3771.119262, 3032.657155, 2658.169819, 2621.560299, 2832.051998
215.125000, 4732.662854, 5092.559559, 4531.667129, 3771.458604, 3014.960111, 2651.127578, 2650.230590, 2830.731256
214.935547, 4724.611386, 5134.703840, 4493.566642, 3837.127855, 3022.991226, 2650.269007, 2607.836276, 2831.360437
214.748047, 4742.470806, 5191.518483, 4511.555601, 3782.911832, 3018.404654, 2688.602114, 2591.885086, 2835.108587
214.556641, 4748.479373, 5170.049516, 4515.269324, 3781.107941, 3013.673967, 2712.956602, 2580.959644, 2828.969811
214.369141, 4699.798493, 5129.448603, 4527.455904, 3818.468826, 3035.200066, 2681.849386, 2550.163189, 2852.680469
214.177734, 4738.576082, 5114.157003, 4561.404424, 3773.624832, 3032.734782, 2676.707307, 2617.279964, 2825.960080
213.986328, 4786.782938, 5170.660913, 4498.788939, 3789.077749, 3032.602315, 2711.499146, 2599.757708, 2862.989650
213.798828, 4742.494164, 5150.209349, 4533.926179, 3798.025508, 2996.357375, 2656.383870, 2589.054923, 2876.711068
213.607422, 4700.367317, 5104.978735, 4544.014764, 3832.664723, 3038.319518, 2673.954740, 2581.570279, 2886.187447
213.417969, 4711.160290, 5105.151919, 4593.661451, 3784.149070, 3040.848996, 2678.997223, 2606.861757, 2881.539077
213.228516, 4752.544754, 5137.234636, 4530.678192, 3761.742176, 3069.604249, 2695.266012, 2617.079155, 2819.928330
213.039063, 4753.431983, 5153.614564, 4495.881282, 3789.318471, 3047.551283, 2684.980471, 2639.488873, 2904.965989
212.847656, 4666.730215, 5155.735597, 4523.760109, 3823.142109, 3035.189386, 2690.602032, 2606.403017, 2868.185764
212.660156, 4701.347558, 5118.073083, 4583.029065, 3802.053516, 3040.968580, 2690.762182, 2633.912860, 2867.743949
212.470703, 4675.434299, 5168.711897, 4589.840385, 3762.204049, 3039.035200, 2687.180686, 2617.634713, 2884.263402
212.281250, 4648.552364, 5203.325017, 4582.491696, 3803.974480, 3083.517027, 2673.154707, 2596.610412, 2867.188000
212.091797, 4704.858176, 5190.935529, 4590.595298, 3826.183109, 3038.197521, 2731.842412, 2631.464271, 2868.992593
211.902344, 4735.128071, 5133.038192, 4595.883027, 3967.183401, 3077.901075, 2704.087183, 2611.050008, 2887.444556
211.710938, 4700.728770, 5191.938356, 4575.670962, 3814.222985, 3086.860782, 2708.402361, 2600.055308, 2892.392270
211.521484, 4685.494235, 5157.772649, 4593.321989, 3831.245749, 3056.496101, 2755.870940, 2681.034434, 2901.137496
211.330078, 4712.703937, 5144.514494, 4578.190999, 3838.630145, 3002.443076, 2682.411486, 2639.542290, 2945.022219
211.142578, 4669.328015, 5172.148466, 4586.754235, 3830.309099, 3073.923132, 2712.028639, 2621.198598, 2919.194960
210.951172, 4730.602055, 5190.114962, 4584.643175, 3794.098943, 3046.450248, 2733.408835, 2656.464783, 2908.992667
210.763672, 4726.659062, 5221.969944, 4559.988098, 3852.141119, 3097.564361, 2795.363867, 2582.126632, 2965.769397
210.572266, 4643.097810, 5171.634168, 4558.874285, 3826.516185, 3008.632672, 2713.739799, 2644.529063, 2933.816214
210.384766, 4719.004656, 5168.993688, 4544.117393, 3787.752582, 3087.158162, 2744.454064, 2648.649895, 2905.807604
210.193359, 4704.796758, 5196.740744, 4586.721484, 3799.131011, 3079.122908, 2805.022011, 2617.922088, 2959.553453
210.003906, 4655.780180, 5220.958694, 4577.866741, 3818.950464, 3071.730950, 2801.255506, 2629.524746, 2990.777943
209.814453, 4623.811734, 5261.051532, 4555.345576, 3853.641192, 3077.689402, 2762.945985, 2611.107938, 2983.453851
209.623047, 4695.362782, 5187.083975, 4595.242687, 3847.411021, 3102.917759, 2778.839742, 2604.527820, 2961.346806
209.433594, 4658.873190, 5224.179618, 4574.982679, 3866.119537, 3059.877491, 2725.873546, 2614.193488, 3017.912521
209.244141, 4667.169370, 5228.104382, 4538.315740, 3887.540394, 3116.651227, 2769.681049, 2613.853373, 3001.505101
209.054688, 4657.391878, 5266.961880, 4618.697763, 3867.283116, 3076.030893, 2755.524876, 2639.209277, 3005.984757
208.863281, 4673.223865, 5229.221008, 4590.099809, 3848.460261, 3130.938463, 2789.720851, 2623.039404, 2988.141650
208.673828, 4652.441912, 5239.400031, 4544.159263, 3883.618700, 3086.948296, 2790.607527, 2671.278072, 2982.520047
208.482422, 4644.087649, 5283.425816, 4610.333885, 3870.977030, 3108.513362, 2796.117530, 2665.861282, 3004.098933
208.294922, 4665.064804, 5261.041442, 4607.425214, 3881.899403, 3102.993147, 2788.804858, 2694.430951, 3032.718774
208.103516, 4665.947056, 5265.804895, 4652.379601, 3900.679016, 3054.228246, 2806.334130, 2626.490029, 3040.579187
207.914063, 4671.709131, 5268.674357, 4633.201161, 3899.709682, 3130.072655, 2789.047562, 2662.653058, 3009.790735
207.724609, 4639.613601, 5267.423978, 4578.987223, 3846.634733, 3147.227959, 2857.231636, 2665.020781, 3074.715416
207.533203, 4652.510969, 5370.750614, 4586.922075, 3919.318440, 3128.828082, 2845.595633, 2690.138443, 3106.978055
207.343750, 4734.846135, 5343.926021, 4637.902185, 3891.008151, 3122.563265, 2843.285360, 2671.257644, 3046.764247
207.154297, 4656.543667, 5320.967042, 4643.182248, 3884.891430, 3138.212087, 2878.599540, 2668.552559, 3110.966354
206.964844, 4669.145585, 5327.691445, 4648.285059, 3874.271033, 3090.958884, 2895.872500, 2696.424277, 3101.728259
206.775391, 4655.477259, 5312.907734, 4603.834911, 3903.182579, 3170.877322, 2844.144595, 2671.229929, 3142.467236
206.585938, 4659.767344, 5303.809954, 4677.918153, 3937.408713, 3102.582427, 2876.564698, 2694.657381, 3120.206100
206.396484, 4679.611443, 5349.682698, 4619.981474, 3958.743653, 3169.377629, 2901.970024, 2664.590442, 3168.602140
206.207031, 4631.373229, 5382.995067, 4609.745101, 3954.463912, 3190.699835, 2889.297243, 2673.807461, 3142.772237
206.017578, 4631.183685, 5337.984028, 4613.641286, 3949.064972, 3147.346092, 2956.965774, 2692.723192, 3110.306825
205.826172, 4681.501374, 5435.404941, 4632.646060, 3932.314166, 3169.730450, 2932.786481, 2706.737060, 3169.822253
205.636719, 4607.845571, 5427.919277, 4669.622554, 3924.232087, 3174.710524, 2944.293247, 2692.919937, 3159.420283
205.447266, 4697.770529, 5402.166378, 4675.010452, 3951.036243, 3176.231013, 2923.803654, 2714.333501, 3214.908037
205.255859, 4671.645529, 5415.914784, 4707.896515, 3975.365567, 3184.970824, 2945.446742, 2701.464291, 3182.460626
205.066406, 4590.417794, 5394.794569, 4696.622988, 4006.435488, 3218.548016, 2997.094447, 2717.045352, 3265.616072
204.875000, 4626.972345, 5467.321238, 4676.454764, 3983.674314, 3186.423902, 3002.388722, 2706.528910, 3221.996288
204.685547, 4682.301382, 5429.333887, 4709.267326, 4032.429767, 3185.985359, 3065.177448, 2721.521284, 3282.208723
204.496094, 4669.209752, 5458.331955, 4729.035431, 3970.968643, 3195.094589, 3034.804191, 2719.007868, 3274.325091
204.306641, 4652.559438, 5432.878529, 4740.225556, 3967.923130, 3215.872487, 3064.183131, 2727.158545, 3276.859056
204.117188, 4627.184233, 5474.329079, 4720.320718, 3998.681238, 3196.292589, 3091.016009, 2760.163429, 3353.685980
203.927734, 4644.828735, 5517.689165, 4737.738864, 4052.404899, 3212.266350, 3120.848816, 2757.358434, 3369.164535
203.736328, 4616.300846, 5541.311035, 4725.285283, 4065.193586, 3204.193293, 3164.442181, 2771.682290, 3385.253732
203.546875, 4690.987242, 5543.211095, 4707.951189, 4061.539809, 3253.480273, 3157.228995, 2763.342505, 3453.411562
203.357422, 4691.400185, 5556.311619, 4731.948337, 4035.367821, 3269.090654, 3193.478257, 2754.493521, 3491.244251
203.167969, 4607.792445, 5562.285229, 4770.368647, 4100.445876, 3253.053621, 3267.396937, 2782.656081, 3514.410209
202.978516, 4675.135163, 5595.898502, 4763.523470, 4108.286273, 3212.892247, 3286.062466, 2792.245688, 3519.195933
202.787109, 4639.336320, 5598.911790, 4823.289619, 4146.254445, 3251.682755, 3300.280698, 2768.834519, 3543.370071
202.595703, 4683.531797, 5588.477675, 4802.915742, 4099.639583, 3275.680435, 3286.884550, 2751.996556, 3623.309388
202.408203, 4704.662177, 5650.859179, 4749.171671, 4146.468032, 3253.044598, 3345.159623, 2792.607329, 3674.897299
202.216797, 4684.888591, 5671.303867, 4859.171022, 4183.689810, 3274.606674, 3383.931263, 2754.369298, 3742.918859
202.027344, 4717.498288, 5657.591049, 4830.336167, 4139.609111, 3301.839028, 3443.713772, 2792.319173, 3784.882030
201.837891, 4668.957294, 5719.999931, 4794.088395, 4230.430447, 3317.744770, 3471.380191, 2816.257876, 3832.027359
201.648438, 4658.472363, 5737.872942, 4815.745698, 4184.496137, 3303.098626, 3543.984557, 2835.358725, 3917.941471
201.457031, 4700.337343, 5773.329712, 4854.553629, 4195.751624, 3330.350093, 3600.683519, 2832.457381, 3980.480549
201.267578, 4671.907856, 5821.781430, 4869.724070, 4253.137032, 3352.520122, 3626.784748, 2840.711686, 4054.947085
201.078125, 4710.574741, 5803.916808, 4895.240074, 4208.101801, 3328.967485, 3696.786678, 2866.236497, 4127.300311
200.886719, 4687.321608, 5930.470109, 4871.572869, 4233.718165, 3361.248642, 3690.242257, 2861.506247, 4217.976380
200.695313, 4704.610272, 5968.119027, 4891.893699, 4313.527607, 3378.601502, 3781.171731, 2879.062188, 4294.379893
200.507813, 4687.054723, 6032.575349, 4898.125655, 4296.863740, 3360.373495, 3868.759397, 2883.995896, 4417.309455
200.316406, 4678.076145, 6049.077142, 4937.175951, 4335.587486, 3412.372470, 3898.239045, 2884.191101, 4518.096861
200.128906, 4738.486264, 6038.767821, 4956.335218, 4393.080134, 3410.960583, 3934.632882, 2917.921704, 4627.270414
199.937500, 4669.996028, 6139.826484, 4937.613619, 4357.410755, 3413.870106, 3993.415722, 2932.633473, 4745.095299
199.746094, 4689.175134, 6171.988229, 5026.508531, 4431.354795, 3461.501541, 4000.452391, 2955.194243, 4829.139907
199.558594, 4679.229713, 6256.784392, 5007.505171, 4453.921013, 3440.476429, 4016.672714, 2981.118802, 4886.102695
199.367188, 4735.726856, 6341.233829, 4977.756186, 4471.011727, 3426.338043, 4088.795684, 2979.368661, 4999.259542
199.175781, 4680.660850, 6384.098014, 4957.373234, 4547.828961, 3453.364043, 4148.505467, 3031.462748, 5101.252360
198.986328, 4675.317818, 6383.983474, 5026.590971, 4527.003636, 3481.287558, 4188.279655, 3017.546359, 5159.017449
198.796875, 4685.276808, 6522.157464, 5058.866362, 4588.733241, 3537.515365, 4199.474502, 3058.510436, 5226.646207
198.605469, 4714.179671, 6623.600048, 5034.358183, 4619.264534, 3533.346803, 4305.088874, 3080.448320, 5265.733869
198.417969, 4718.911056, 6633.133202, 5088.895121, 4653.125099, 3509.032634, 4257.964955, 3137.644232, 5409.879717
198.226563, 4687.990590, 6811.374899, 5147.725701, 4700.566634, 3552.944290, 4356.279590, 3125.591059, 5485.847582
198.037109, 4716.853431, 6852.141688, 5111.871117, 4777.877820, 3604.336960, 4385.476584, 3221.678969, 5576.962516
197.845703, 4686.779147, 6992.941297, 5146.405077, 4802.826833, 3571.480285, 4423.694544, 3183.153563, 5663.518546
197.656250, 4725.004003, 7001.618095, 5144.096832, 4842.898414, 3631.609762, 4477.786653, 3227.212341, 5661.560824
197.466797, 4707.478246, 7197.030420, 5279.846752, 4959.122283, 3666.245506, 4525.499109, 3283.893066, 5769.166651
197.275391, 4703.428871, 7340.971090, 5212.670374, 4948.385405, 3715.390722, 4501.610357, 3305.768472, 5891.673924
197.085938, 4807.107915, 7304.244346, 5305.540542, 5037.087976, 3715.861217, 4557.300282, 3355.191340, 5969.024585
196.896484, 4768.864402, 7532.275341, 5369.676850, 5127.121530, 3725.474769, 4588.115481, 3381.755613, 6005.087960
196.705078, 4780.380208, 7593.831444, 5401.844716, 5197.839215, 3781.398968, 4650.969530, 3404.509115, 6155.371205
196.513672, 4796.882520, 7726.145975, 5416.805460, 5257.309232, 3854.044092, 4619.805134, 3435.307087, 6230.670615
196.324219, 4800.419942, 7853.575456, 5492.085491, 5345.735409, 3860.926413, 4675.086342, 3471.061142, 6340.080779
196.134766, 4788.305950, 7927.279078, 5543.069360, 5478.030196, 3916.730433, 4660.448759, 3483.507397, 6384.122719
195.945313, 4813.655583, 8069.510720, 5565.203771, 5532.586569, 3915.207930, 4608.559201, 3515.211200, 6500.693434
195.755859, 4810.260167, 8142.654159, 5571.184730, 5602.525298, 3998.553991, 4612.468942, 3540.036918, 6488.775785
195.566406, 4777.993800, 8220.458848, 5703.721938, 5724.765084, 4045.979282, 4631.039379, 3595.751779, 6466.424325
195.375000, 4743.907910, 8310.632108, 5730.394620, 5790.548037, 4071.050956, 4608.477967, 3623.028925, 6452.936292
195.185547, 4803.367125, 8454.931819, 5750.193236, 5827.621095, 4150.139489, 4618.412019, 3644.073956, 6365.902945
194.994141, 4801.264791, 8520.931036, 5833.794716, 5930.907654, 4181.105339, 4626.512607, 3618.162621, 6356.976159
194.804688, 4767.461305, 8608.452374, 5888.250932, 6031.814407, 4281.463882, 4582.729544, 3723.827555, 6330.585122
194.615234, 4804.332386, 8759.631234, 5988.999486, 6066.774485, 4269.241634, 4638.373034, 3718.357751, 6269.438210
194.423828, 4779.246549, 8819.873156, 6067.897603, 6134.220645, 4391.651008, 4657.538496, 3716.675066, 6207.182015
194.232422, 4766.130054, 8889.839999, 6182.546135, 6283.377818, 4496.005783, 4661.679572, 3740.877286, 6142.660641
194.044922, 4866.938079, 9012.453622, 6286.932369, 6248.827342, 4589.726727, 4748.148380, 3797.495134, 6144.085296
193.853516, 4858.225260, 9088.234025, 6348.711636, 6359.693831, 4611.801938, 4728.129510, 3799.455223, 6092.506236
193.664063, 4858.676361, 9118.460449, 6425.173950, 6426.462133, 4706.504840, 4863.004910, 3822.469114, 6001.611609
193.474609, 4866.371871, 9196.090218, 6572.009237, 6380.382383, 4786.388914, 4901.276480, 3805.131565, 6089.242127
193.283203, 4910.121844, 9223.028972, 6654.519613, 6544.124844, 4830.913503, 4969.782971, 3852.773431, 6064.312240
193.093750, 4870.404619, 9326.351660, 6725.962254, 6599.401062, 4874.708062, 5089.742526, 3863.751524, 6072.025860
192.902344, 4923.139004, 9349.587546, 6830.039635, 6605.801884, 4996.633530, 5122.565558, 3839.638020, 6148.956266
192.712891, 4890.201603, 9407.979592, 6911.137100, 6689.784718, 5067.419128, 5208.894970, 3863.086061, 6215.376824
192.523438, 4927.574637, 9378.078677, 7013.753479, 6684.650207, 5122.031746, 5381.352928, 3850.849457, 6334.650581
192.330078, 4923.107998, 9512.534094, 7057.263603, 6792.718883, 5229.695890, 5386.764996, 3830.482678, 6449.181602
192.142578, 4914.797441, 9507.341718, 7203.489746, 6763.835851, 5273.956210, 5495.613166, 3868.567623, 6524.401407
191.951172, 4966.301427, 9479.308132, 7334.109253, 6868.314315, 5309.596701, 5587.852465, 3866.388013, 6726.640211
191.759766, 4953.393586, 9440.820341, 7349.388699, 6875.294021, 5375.560257, 5613.872345, 3854.732882, 6897.985610
191.572266, 4976.273501, 9420.255785, 7486.545163, 6899.312624, 5481.036267, 5612.413709, 3892.565450, 7059.132218
191.378906, 4980.170020, 9496.586384, 7556.506053, 6877.845923, 5512.950383, 5659.115163, 3926.170421, 7188.781658
191.191406, 5033.809738, 9551.162971, 7614.169651, 6938.252975, 5503.707774, 5610.646244, 3929.206448, 7350.368200
191.000000, 5092.082163, 9512.867514, 7666.264293, 6965.707124, 5602.325585, 5572.837693, 3947.833957, 7486.981755
190.812500, 5064.838707, 9577.511237, 7768.437046, 6895.120048, 5687.871737, 5530.359827, 3968.994383, 7535.738458
190.621094, 5172.962350, 9599.374514, 7875.368368, 6915.767844, 5709.135408, 5546.017479, 4037.131884, 7619.615045
190.429688, 5152.790503, 9779.573589, 7909.643735, 6929.344716, 5750.569173, 5463.269614, 4075.603830, 7688.500709
190.238281, 5162.952875, 9954.646058, 7948.253758, 6936.327864, 5796.039164, 5452.776812, 4098.240911, 7652.399384
190.050781, 5246.055059, 10032.301400, 8014.920336, 6959.571472, 5795.307245, 5368.005040, 4163.248240, 7503.083354
189.859375, 5257.164324, 10066.352435, 8113.082749, 6952.974608, 5894.696737, 5367.839569, 4235.049598, 7467.598535
189.667969, 5348.868810, 10284.120195, 8124.864387, 7016.765290, 5916.977955, 5310.883976, 4304.891007, 7273.834766
189.478516, 5436.470467, 10548.463363, 8210.735865, 6994.430836, 5906.919199, 5278.188491, 4384.606598, 7121.865866
189.287109, 5505.661860, 10729.895950, 8248.385651, 7068.484394, 5935.445154, 5337.715434, 4381.230377, 6948.200192
189.099609, 5560.336504, 10933.868825, 8294.267046, 7184.630836, 5919.781062, 5363.885082, 4523.746094, 6811.062998
188.908203, 5718.809914, 11154.174783, 8307.351137, 7248.775041, 5955.067705, 5414.404302, 4465.885122, 6757.560180
188.718750, 5805.192396, 11323.931840, 8350.354509, 7286.253833, 5952.807931, 5455.075238, 4581.515829, 6603.077514
188.527344, 5916.897039, 11551.948358, 8349.980025, 7405.425095, 5972.660102, 5485.452945, 4602.613331, 6543.534426
188.337891, 6032.897983, 11647.016111, 8363.587035, 7564.249588, 5929.583251, 5621.754538, 4599.786636, 6518.058969
188.148438, 6100.152589, 11917.655349, 8390.866618, 7670.756952, 5996.464383, 5651.437981, 4616.374147, 6554.522376
187.955078, 6098.102450, 11917.273276, 8362.686539, 7739.644363, 6044.403720, 5790.707862, 4651.101896, 6474.176965
187.765625, 6248.751435, 11947.363200, 8394.496239, 7982.429842, 6081.962863, 5892.888017, 4577.479328, 6602.194467
187.576172, 6177.581827, 11970.103503, 8387.370371, 8125.660750, 6122.802948, 6020.896714, 4592.631972, 6569.303817
187.386719, 6231.262541, 11850.668111, 8414.412400, 8206.409107, 6183.340546, 6155.180567, 4547.888535, 6654.273759
187.193359, 6206.988049, 11836.392442, 8442.679526, 8385.635699, 6303.017211, 6424.735813, 4519.303169, 6702.603900
187.001953, 6039.054772, 11670.432677, 8498.657198, 8453.431542, 6314.143477, 6509.805658, 4510.378785, 6884.866358
186.814453, 6061.657773, 11561.038325, 8500.664873, 8534.092906, 6407.436044, 6706.747397, 4462.327276, 7000.169117
186.623047, 5955.358764, 11352.470903, 8581.596947, 8526.574677, 6520.468740, 6933.936944, 4429.878363, 7145.347353
186.433594, 5992.186240, 11262.201699, 8680.947568, 8583.364302, 6646.237611, 7119.975808, 4463.220036, 7327.800738
186.242188, 5884.741861, 11217.557790, 8799.832941, 8614.951493, 6742.811888, 7145.867162, 4426.483868, 7562.723988
186.054688, 5909.469455, 11114.106030, 8890.615989, 8558.048233, 6909.146248, 7352.053889, 4482.650380, 7738.256363
185.863281, 5965.331519, 11025.081449, 9061.891753, 8489.634065, 6995.681938, 7442.266711, 4515.842002, 7965.532966
185.671875, 5896.131853, 11034.767745, 9179.349290, 8510.412926, 7110.483283, 7475.835365, 4509.836719, 8216.485383
185.482422, 5969.969799, 11087.639923, 9313.335540, 8479.765587, 7264.074028, 7571.749128, 4541.832841, 8342.490864
185.291016, 6087.859634, 11081.748912, 9525.716119, 8352.080002, 7342.348633, 7537.118380, 4658.069914, 8612.441496
185.101563, 6136.759481, 11148.025225, 9768.266774, 8315.802515, 7390.961564, 7509.660101, 4698.291948, 8761.404807
184.910156, 6253.505812, 11300.330844, 9801.165994, 8241.616038, 7392.158078, 7452.650240, 4806.987124, 8946.021711
184.718750, 6383.428212, 11360.058522, 9985.992105, 8243.660015, 7449.161005, 7396.699673, 4832.409965, 9222.905774
184.529297, 6418.388384, 11468.333618, 10106.576965, 8201.864896, 7463.643171, 7266.637357, 4908.621489, 9234.580129
184.337891, 6541.273934, 11675.739908, 10154.078531, 8211.787122, 7414.766611, 7124.022917, 5024.006829, 9462.003309
184.148438, 6522.685555, 11968.307905, 10301.050014, 8213.141274, 7367.724857, 7036.590497, 5159.299266, 9562.105104
183.958984, 6461.018110, 12176.114912, 10283.528373, 8282.183934, 7252.872671, 6923.488732, 5287.644704, 9482.807022
183.769531, 6425.618074, 12463.244030, 10307.028067, 8406.797385, 7289.776007, 6747.760350, 5377.985671, 9362.951161
183.578125, 6322.172047, 12717.696054, 10223.939456, 8456.489187, 7224.123053, 6712.904611, 5450.142799, 9303.923130
183.386719, 6266.646304, 13014.500949, 10142.037028, 8583.410721, 7085.193649, 6561.677001, 5537.367076, 9204.151667
183.197266, 6135.042625, 13352.509826, 10031.121845, 8730.079889, 7151.294977, 6502.504903, 5577.540032, 8976.700452
183.005859, 6054.929802, 13699.644914, 10001.872761, 8805.984994, 7133.078640, 6453.691657, 5784.925304, 8816.677286
182.816406, 5984.023056, 13949.212188, 9860.156420, 8964.577234, 7102.704168, 6452.171545, 5815.860663, 8563.499601
182.625000, 6039.987049, 14302.341674, 9819.530926, 9181.158385, 7116.823690, 6380.331394, 5901.933874, 8323.326760
182.435547, 5991.768476, 14521.085722, 9743.187913, 9361.555619, 7144.988372, 6383.345190, 5977.054155, 8149.341551
182.244141, 6053.186594, 14732.698421, 9743.480297, 9557.149304, 7170.933726, 6391.382546, 5888.745222, 8033.781434
182.052734, 6065.698840, 14873.567631, 9652.892684, 9775.916918, 7298.603651, 6471.624721, 5907.065956, 7941.116282
181.863281, 6120.452529, 15015.103421, 9707.174074, 9946.727030, 7342.923491, 6527.976639, 5871.917434, 7699.229709
181.671875, 6145.051786, 15098.798308, 9752.200581, 10206.434935, 7517.835398, 6557.373757, 5796.621606, 7625.106927
181.482422, 6245.507765, 14997.540143, 9671.451031, 10366.594865, 7655.357770, 6607.560870, 5788.232008, 7624.202973
181.291016, 6268.468043, 14867.550210, 9761.466709, 10513.133338, 7853.652375, 6709.367564, 5733.688039, 7617.143910
181.101563, 6478.170856, 14908.991384, 9950.902952, 10674.965405, 7953.390185, 6774.247801, 5657.124955, 7573.574019
180.910156, 6579.096500, 14543.226589, 10032.254509, 10826.786474, 8135.476553, 6902.655885, 5542.645609, 7565.557373
180.720703, 6794.289641, 14319.293756, 10167.804904, 10839.515292, 8384.292786, 7001.571396, 5427.693610, 7595.356919
180.531250, 6999.408343, 14084.353633, 10381.535822, 10889.325796, 8717.233268, 7171.003007, 5409.057336, 7651.138323
180.339844, 7239.367399, 13785.142701, 10521.705037, 10885.126245, 8850.348019, 7208.548084, 5369.923730, 7720.746349
180.150391, 7484.970230, 13389.532825, 10661.661043, 10801.673660, 8998.362564, 7203.948049, 5326.545584, 7765.082332
179.958984, 7664.566227, 13163.834325, 10980.948624, 10656.235436, 9308.007559, 7305.546809, 5232.755580, 7907.654441
179.767578, 7886.936122, 12984.684748, 11211.130441, 10594.442899, 9414.151094, 7335.117913, 5234.833664, 7953.426997
179.578125, 7998.172640, 12707.507180, 11432.256368, 10420.545265, 9731.328174, 7235.567337, 5173.862818, 8003.652987
179.386719, 8088.512175, 12490.743416, 11676.995763, 10201.739091, 9829.166358, 7276.985551, 5176.034704, 8070.408202
179.195313, 8143.404819, 12348.889698, 11940.317236, 10113.200105, 9851.508562, 7208.113357, 5252.332324, 8087.086927
179.005859, 8050.614901, 12242.107198, 12198.899581, 9905.082708, 10033.524372, 7059.130346, 5282.231876, 8100.500054
178.816406, 7840.554446, 12182.233832, 12460.578659, 9766.197308, 10066.783225, 6982.039400, 5228.561304, 8109.974562
178.625000, 7642.058808, 12191.664049, 12715.712543, 9542.467064, 10029.287704, 6816.201113, 5309.762398, 8120.707888
178.433594, 7460.526229, 12226.698803, 12833.384433, 9490.782473, 9993.740217, 6705.826742, 5312.239907, 7971.232983
178.244141, 7251.388735, 12141.564909, 12951.750799, 9360.912236, 9921.899478, 6519.920871, 5337.449015, 7920.184361
178.052734, 7077.823765, 12213.265958, 13156.136031, 9271.607810, 9733.874819, 6405.385684, 5440.180393, 7799.841692
177.863281, 6949.073627, 12350.896773, 13100.626055, 9272.307500, 9703.578153, 6275.662277, 5504.753345, 7671.169244
177.673828, 6917.146242, 12380.153504, 13115.769255, 9126.570822, 9462.475991, 6129.256176, 5587.827783, 7547.418704
177.482422, 6807.163979, 12428.386319, 13051.575260, 9204.405020, 9291.938637, 5904.500240, 5607.828179, 7369.321363
177.291016, 6789.839248, 12581.942205, 12941.948274, 9233.784947, 9112.199294, 5804.262730, 5604.962823, 7187.578112
177.101563, 6730.066353, 12686.253198, 12839.517502, 9205.276490, 8932.464850, 5652.874681, 5622.924291, 7038.593581
176.910156, 6886.089424, 12872.720255, 12675.012958, 9312.193734, 8806.292465, 5551.269751, 5707.367966, 6874.499529
176.718750, 6825.894922, 12838.932134, 12451.501003, 9392.603018, 8631.268005, 5434.247529, 5735.013874, 6701.764483
176.529297, 6926.456579, 12872.466769, 12302.713703, 9479.595393, 8539.656721, 5334.871110, 5679.928721, 6587.811382
176.337891, 7096.545768, 12821.001188, 12006.510761, 9548.338975, 8445.109715, 5220.931020, 5618.896316, 6400.982416
176.146484, 7220.322807, 12877.243402, 11792.484530, 9546.461667, 8336.213482, 5163.596435, 5625.319173, 6246.462559
175.955078, 7330.474112, 12790.945608, 11609.244619, 9696.392962, 8252.131785, 5030.773435, 5523.023805, 6155.658810
175.765625, 7500.207866, 12671.771115, 11415.517438, 9757.077395, 8333.957540, 5055.096563, 5507.184440, 6008.917296
175.576172, 7788.070379, 12671.052195, 11324.554172, 9888.023564, 8255.468026, 4917.992544, 5385.939635, 5917.389996
175.382813, 8081.203790, 12430.946050, 11213.082659, 9883.350151, 8260.976453, 4904.170576, 5303.344762, 5727.722275
175.195313, 8483.209695, 12180.620672, 11123.543124, 9946.016254, 8307.557743, 4830.697978, 5256.230579, 5646.243401
175.003906, 9011.013348, 12014.949088, 11127.706765, 9841.011206, 8346.117575, 4808.541642, 5116.640912, 5509.163810
174.812500, 9524.696097, 11769.692392, 11112.049685, 9856.530003, 8384.407981, 4781.444203, 5054.988094, 5424.793177
174.623047, 10213.185288, 11587.247208, 11182.235523, 9776.524225, 8496.637467, 4724.987356, 4889.735606, 5413.931636
174.431641, 10955.125408, 11232.174830, 11198.309839, 9653.345948, 8566.504643, 4652.037942, 4829.042155, 5309.498783
174.242188, 11604.072166, 11004.886229, 11229.720698, 9572.909682, 8648.395430, 4573.072943, 4761.061325, 5224.610161
174.050781, 12094.639423, 10767.965730, 11397.605456, 9396.502688, 8670.065566, 4542.120800, 4623.536424, 5182.275966
173.859375, 12250.850033, 10532.419950, 11444.698951, 9367.105797, 8797.182447, 4596.471837, 4541.142768, 5163.285047
173.669922, 12077.267659, 10319.018464, 11519.780470, 9075.450731, 8895.777071, 4482.980990, 4467.950943, 5139.097102
173.478516, 11651.100774, 10059.596611, 11688.792315, 8978.608642, 8865.481434, 4522.562156, 4456.206445, 5060.513899
173.287109, 11247.133670, 9830.918116, 11738.467220, 8826.152874, 8885.526968, 4520.180621, 4354.825110, 4969.562107
173.097656, 10533.895735, 9711.493476, 11875.764015, 8581.937893, 8856.331644, 4495.858635, 4306.695457, 4969.124361
172.904297, 10027.626818, 9555.690500, 11920.899020, 8427.305193, 8809.058428, 4537.359020, 4260.317663, 4876.169888
172.714844, 9597.320052, 9316.180239, 12078.463724, 8263.691540, 8717.579655, 4452.329234, 4171.002153, 4860.330450
172.525391, 9231.059796, 9189.921583, 12053.759403, 8117.503881, 8563.492169, 4421.819285, 4223.592222, 4878.583386
172.333984, 8833.825985, 9100.928919, 11991.692919, 7907.150904, 8494.155232, 4440.651699, 4078.105938, 4774.500771
172.142578, 8661.378486, 8917.803508, 12103.010231, 7790.419549, 8363.226077, 4494.845792, 4073.439402, 4802.622510
171.953125, 8462.807439, 8801.853577, 11900.614844, 7700.574968, 8186.711770, 4464.960526, 4073.574063, 4839.907942
171.761719, 8336.343320, 8706.208356, 11819.383939, 7542.154911, 8048.753516, 4394.233585, 4042.843516, 4815.079175
171.572266, 8314.536496, 8639.376633, 11751.960578, 7416.458382, 7849.371498, 4486.330645, 3971.747331, 4697.715486
171.380859, 8183.868434, 8515.709588, 11483.545789, 7314.810503, 7689.074740, 4456.391383, 3959.273404, 4794.145254
171.191406, 8175.889895, 8365.040540, 11317.158745, 7270.510031, 7482.118476, 4453.009669, 3894.616687, 4807.110102
171.000000, 8174.176516, 8332.611154, 11210.209541, 7121.704793, 7278.491604, 4500.046060, 3901.181469, 4838.917030
170.808594, 8153.184490, 8226.201680, 10909.537229, 7152.706364, 7111.655470, 4450.669731, 3910.099103, 4812.164700
170.619141, 8145.503055, 8127.160036, 10618.346546, 6968.476454, 6891.477605, 4487.164915, 3867.831817, 4805.644060
170.427734, 8391.375297, 8136.935857, 10421.521870, 6953.518596, 6787.013714, 4533.449415, 3883.034351, 4856.426626
170.236328, 8512.519632, 8104.259603, 10209.379716, 6852.225674, 6638.157934, 4455.967403, 3831.814887, 4866.962650
170.044922, 8777.898029, 7951.726611, 10032.138444, 6756.811495, 6572.519371, 4512.405187, 3831.276175, 4905.828055
169.855469, 9070.285080, 7969.197398, 9784.086799, 6751.151786, 6457.845256, 4552.854274, 3785.583861, 4847.312499
169.664063, 9536.088508, 7876.072205, 9530.925664, 6705.235054, 6254.120448, 4504.106162, 3795.090967, 4918.201289
169.472656, 10073.173825, 7844.516170, 9391.439128, 6614.514905, 6160.896033, 4603.791535, 3745.499718, 4965.421289
169.283203, 10710.298139, 7894.295266, 9169.601158, 6586.010131, 6092.868237, 4572.639935, 3774.993651, 4966.486461
169.091797, 11343.129880, 7836.974673, 9069.620718, 6531.667685, 5961.089387, 4601.385745, 3741.013646, 4949.279019
168.900391, 12239.271606, 7796.817439, 8838.798776, 6495.366452, 5927.369567, 4672.320661, 3735.590934, 5018.487150
168.708984, 13287.821118, 7764.106010, 8729.465233, 6519.339056, 5803.853567, 4677.411475, 3765.792415, 5077.101727
168.519531, 14409.848229, 7760.865839, 8720.177807, 6490.616337, 5788.571833, 4690.702616, 3745.399621, 5074.587722
168.328125, 15519.972057, 7821.296952, 8432.174111, 6435.496703, 5707.745391, 4757.071862, 3727.438543, 5166.760552
168.136719, 16716.641424, 7766.808891, 8394.261431, 6444.161938, 5654.099864, 4760.951352, 3774.698207, 5177.183457
167.949219, 17739.002083, 7776.011293, 8276.911603, 6473.052228, 5590.265550, 4801.106986, 3757.816173, 5224.392145
167.755859, 18403.266409, 7826.465414, 8171.417517, 6435.817438, 5427.449732, 4904.055841, 3786.337528, 5247.160556
167.566406, 18503.110060, 7841.441011, 8160.942226, 6464.006052, 5454.979397, 4903.598369, 3787.122451, 5357.138845
167.375000, 17837.943958, 7784.968599, 8088.714038, 6482.341806, 5404.373083, 4967.653656, 3815.149706, 5395.210062
167.185547, 16946.731642, 7873.269993, 7921.087009, 6506.489034, 5391.494838, 5055.870114, 3829.563739, 5463.251341
166.992188, 15485.376182, 7909.495335, 7960.519386, 6535.523335, 5353.319234, 5081.964269, 3804.009985, 5482.394699
166.802734, 14287.567741, 7967.129534, 7813.525854, 6521.344503, 5303.187906, 5169.210784, 3816.839496, 5612.970866
166.611328, 12955.738696, 7918.637514, 7765.477529, 6541.463565, 5320.220171, 5236.672331, 3796.208481, 5682.437707
166.419922, 11825.049485, 7939.628344, 7739.474074, 6571.449049, 5253.822871, 5306.944772, 3802.896897, 5825.431017
166.230469, 10872.877039, 7985.940429, 7699.580734, 6560.511689, 5281.252938, 5382.419874, 3869.052081, 5883.060042
166.039063, 10129.745885, 7989.002238, 7717.579757, 6617.086283, 5200.583088, 5434.180124, 3818.973098, 6021.518377
165.849609, 9475.844442, 8092.373395, 7603.866636, 6676.364338, 5230.586764, 5536.097322, 3861.764937, 6121.262736
165.656250, 9022.039503, 8124.191698, 7648.152358, 6691.955766, 5153.794024, 5601.090686, 3863.354146, 6271.048170
165.466797, 8606.407722, 8156.981404, 7594.373507, 6791.558231, 5189.743753, 5657.377764, 3844.718028, 6331.379291
165.275391, 8195.530833, 8267.395424, 7585.368678, 6762.282868, 5157.685089, 5731.425915, 3912.302740, 6475.154711
165.085938, 7926.677454, 8302.382568, 7624.767254, 6873.370338, 5185.080946, 5764.158375, 3937.470147, 6592.406839
164.894531, 7733.893601, 8310.526999, 7589.557567, 6898.505935, 5155.072969, 5845.826902, 3934.597085, 6725.367573
164.703125, 7472.166060, 8502.427778, 7564.711392, 6983.025880, 5224.903412, 5785.956999, 3960.367460, 6845.099773
164.509766, 7305.664039, 8502.420073, 7598.777371, 7087.205628, 5171.064101, 5870.871984, 4042.217731, 6945.850524
164.322266, 7127.247989, 8678.853658, 7634.853993, 7100.293004, 5147.163788, 5890.522172, 3991.609746, 7008.305276
164.128906, 6987.436106, 8686.620347, 7609.047070, 7162.796686, 5267.077891, 5957.309558, 4043.681065, 7079.022942
163.939453, 6938.533676, 8785.806057, 7604.667975, 7339.734616, 5283.440911, 5839.499809, 4101.013959, 7152.924279
163.748047, 6851.713089, 9031.511765, 7702.116880, 7366.523707, 5229.203605, 5843.770953, 4149.851311, 7158.968487
163.558594, 6773.290175, 9195.510872, 7666.745139, 7515.799503, 5304.744468, 5907.924558, 4160.643773, 7156.537285
163.367188, 6741.846756, 9256.933375, 7738.091218, 7549.954542, 5320.192505, 5819.494763, 4227.312400, 7210.014330
163.175781, 6701.128345, 9327.881821, 7822.661720, 7729.360378, 5288.869051, 5854.487688, 4207.029320, 7180.753835
162.984375, 6645.480172, 9586.604540, 7903.100049, 7929.464241, 5290.959962, 5813.894125, 4270.814334, 7152.063248
162.792969, 6657.686508, 9697.511715, 7924.454031, 8014.344546, 5323.965466, 5676.542737, 4344.029874, 7089.936212
162.603516, 6542.339162, 9910.264811, 7962.669425, 8189.840861, 5327.100459, 5734.832322, 4344.880965, 7092.290430
162.412109, 6570.275170, 10066.151979, 8085.365334, 8358.632549, 5393.334586, 5606.352359, 4389.214522, 7019.142242
162.220703, 6509.411920, 10144.927434, 8025.096413, 8483.894203, 5505.214561, 5526.441928, 4404.390038, 6959.769696
162.029297, 6470.338243, 10419.924499, 8210.072506, 8732.791222, 5475.515867, 5617.397815, 4486.591553, 6880.376604
161.839844, 6433.763723, 10536.854255, 8239.563661, 8846.574535, 5549.512159, 5515.393796, 4545.338079, 6868.107514
161.646484, 6470.373958, 10674.880281, 8266.419272, 9075.834426, 5585.876212, 5450.422053, 4498.074975, 6760.064519
161.457031, 6481.355916, 10872.064758, 8416.924184, 9277.039100, 5571.579889, 5443.210857, 4529.080749, 6663.726663
161.265625, 6545.990200, 10843.857818, 8408.583833, 9446.624534, 5681.371065, 5412.150964, 4497.618988, 6622.427360
161.076172, 6492.859775, 10944.618369, 8583.514025, 9541.667784, 5717.723023, 5307.855362, 4579.204425, 6529.196105
160.884766, 6580.083379, 11027.802558, 8733.234265, 9874.644102, 5773.740450, 5250.926154, 4511.191301, 6454.855677
160.693359, 6574.329015, 11146.086472, 8835.209354, 10040.452297, 5899.059903, 5226.182684, 4506.844533, 6465.777751
160.503906, 6628.243013, 11078.781934, 8969.065701, 10211.285044, 5993.321343, 5116.670480, 4506.344804, 6252.481679
160.310547, 6661.123380, 11082.596678, 9130.898175, 10315.902870, 6079.193945, 5092.763228, 4496.028207, 6151.169446
160.119141, 6696.788327, 11028.202971, 9246.469410, 10478.493701, 6130.082409, 5023.803146, 4416.804630, 6212.308806
159.929688, 6715.817865, 11009.329119, 9468.683656, 10508.507704, 6234.023567, 5007.827792, 4395.929867, 6028.931686
159.738281, 6711.279305, 10947.626385, 9630.558168, 10604.003933, 6344.009273, 4894.356480, 4372.950548, 5957.985697
159.546875, 6752.693719, 10869.806565, 9845.782462, 10740.895546, 6419.117024, 4904.238963, 4381.371339, 5909.690798
159.357422, 6660.136068, 10817.935683, 10024.165606, 10678.763748, 6602.218262, 4845.648473, 4359.316623, 5830.210317
159.166016, 6561.778409, 10769.184937, 10334.965068, 10667.977289, 6695.997141, 4728.367440, 4312.233279, 5699.313966
158.974609, 6557.063587, 10659.229195, 10401.985998, 10702.134972, 6762.509935, 4697.130913, 4327.632082, 5652.764267
158.783203, 6531.588398, 10467.089294, 10716.273638, 10736.493491, 6817.853422, 4654.197696, 4271.517170, 5543.041891
158.593750, 6487.763212, 10364.379844, 10954.327927, 10536.662796, 6924.398678, 4594.142266, 4231.703110, 5503.101503
158.400391, 6467.193039, 10379.497741, 11160.772237, 10566.226316, 7056.360971, 4518.672760, 4212.495602, 5458.276809
158.210938, 6384.577154, 10226.297549, 11338.736178, 10495.824128, 7104.303450, 4534.746921, 4195.575649, 5275.888669
158.019531, 6352.376371, 10116.582778, 11662.850972, 10510.697181, 7137.567145, 4482.526029, 4199.422991, 5226.991649
157.828125, 6448.503844, 9977.758391, 11853.321859, 10318.933414, 7127.998763, 4432.342067, 4215.704467, 5149.103315
157.636719, 6480.490976, 9837.968588, 11980.611062, 10250.402344, 7299.633126, 4385.534623, 4102.710482, 5065.835555
157.445313, 6524.749736, 9748.922669, 12090.061338, 10157.005090, 7232.784850, 4358.416052, 4092.454686, 5002.211615
157.253906, 6474.121205, 9565.409398, 12272.925029, 10105.276548, 7217.906103, 4277.205965, 4093.593812, 4906.938744
157.062500, 6623.936302, 9530.617658, 12390.997821, 9973.346690, 7264.735589, 4321.066902, 4012.020306, 4854.482507
156.873047, 6580.057027, 9431.993868, 12291.108025, 9868.460159, 7206.891034, 4259.958052, 4052.693680, 4828.383122
156.681641, 6532.630526, 9289.176442, 12470.729962, 9733.661483, 7170.904930, 4202.494702, 3953.515007, 4759.780424
156.492188, 6560.678061, 9074.395794, 12472.931012, 9532.605303, 7141.341414, 4155.467793, 3979.713846, 4682.008435
156.298828, 6570.928208, 8970.211002, 12397.304046, 9442.709507, 7058.524894, 4175.286841, 3874.540857, 4653.624302
156.109375, 6676.468689, 8845.395456, 12402.278052, 9289.122039, 7077.613427, 4144.894203, 3890.021904, 4597.267104
155.917969, 6633.408630, 8776.553374, 12422.373629, 9199.809206, 6980.170880, 4078.371622, 3820.707061, 4503.021778
155.726563, 6688.636923, 8508.563113, 12298.363140, 9070.995893, 6923.847576, 4043.590802, 3830.182318, 4476.891278
155.535156, 6746.014623, 8371.584478, 12264.788802, 8925.126553, 6844.822412, 4092.713856, 3828.951103, 4486.885609
155.343750, 6767.709736, 8233.375486, 12109.149343, 8791.531921, 6859.430636, 4050.855995, 3795.605496, 4452.516062
155.154297, 6810.396449, 8110.098223, 12075.439721, 8613.876113, 6786.459014, 4062.686070, 3692.943562, 4382.431336
154.960938, 6865.290797, 8083.174742, 11984.863124, 8532.937279, 6732.387751, 3966.783300, 3724.577052, 4348.769290
154.771484, 6893.926343, 7944.278904, 11879.960305, 8276.181593, 6643.718492, 3962.168543, 3749.824769, 4352.234452
154.580078, 6921.376606, 7796.547265, 11676.082652, 8183.212306, 6565.312403, 3962.813523, 3668.314328, 4277.698222
154.388672, 7089.328480, 7713.333549, 11478.427664, 8063.448958, 6437.321662, 3972.481099, 3721.312178, 4261.730825
154.197266, 7128.258016, 7571.519976, 11456.443431, 7881.303619, 6376.613620, 3924.584683, 3651.359768, 4290.793726
154.005859, 7245.174008, 7552.500916, 11304.942822, 7779.995718, 6285.849032, 3886.384258, 3628.542836, 4186.960059
153.816406, 7431.064347, 7429.519397, 11097.470620, 7595.508902, 6305.956023, 3887.058606, 3591.152231, 4160.818786
153.623047, 7497.499943, 7337.629180, 11060.355554, 7406.958318, 6210.494899, 3853.398372, 3591.593020, 4213.357027
153.433594, 7695.925655, 7306.660015, 10837.798042, 7289.966491, 6085.532113, 3838.161009, 3653.752454, 4100.459183
153.242188, 7769.786282, 7220.362455, 10633.475501, 7269.692636, 6032.167472, 3865.735415, 3569.262734, 4137.962234
153.050781, 7835.347578, 7133.804757, 10517.927011, 7052.344384, 5878.278668, 3773.821162, 3524.743725, 4097.758054
152.859375, 8042.371496, 7051.548422, 10287.362292, 7017.864165, 5903.497990, 3816.106437, 3565.074172, 4091.065446
152.667969, 8135.039940, 6927.667753, 10166.290602, 6866.508951, 5734.182129, 3765.976351, 3540.445239, 3968.362833
152.478516, 8045.799503, 7009.131603, 10006.820974, 6801.840147, 5637.440530, 3752.271660, 3544.422465, 3942.682108
152.285156, 8192.262599, 6925.949720, 9817.433285, 6648.028745, 5643.668518, 3715.208563, 3565.329293, 3955.526286
152.093750, 8176.407872, 6834.692168, 9574.377168, 6637.821555, 5549.197555, 3708.991678, 3488.039888, 3928.888271
151.904297, 8139.581584, 6745.009788, 9485.109412, 6519.339391, 5455.668847, 3727.800942, 3434.346432, 3927.000002
151.710938, 8082.343662, 6762.398982, 9204.489450, 6421.345062, 5359.761452, 3710.682769, 3507.079023, 3899.387515
151.521484, 8017.451264, 6657.347076, 9104.290472, 6287.947292, 5292.619539, 3718.942071, 3464.304260, 3898.128981
151.330078, 8148.237440, 6733.911680, 8883.977837, 6268.935497, 5263.534320, 3673.822933, 3466.761276, 3806.363158
151.136719, 8066.911852, 6547.201173, 8684.646082, 6211.509117, 5214.874880, 3666.075826, 3453.072494, 3856.487421
150.947266, 8085.171411, 6553.824468, 8590.657325, 6201.025607, 5098.215560, 3661.976985, 3433.661850, 3810.523908
150.755859, 7904.938494, 6586.227161, 8422.029761, 6073.737048, 5088.263049, 3635.311837, 3427.002389, 3777.398855
150.564453, 7953.417440, 6488.757713, 8216.627569, 6037.709222, 5015.876397, 3633.857734, 3432.210535, 3778.015055
150.373047, 7775.994460, 6460.080420, 8121.353326, 6024.515378, 4916.971464, 3597.835105, 3381.596104, 3723.734736
150.181641, 7619.768580, 6474.094187, 8019.551444, 5927.797113, 4933.330879, 3603.272594, 3423.081957, 3729.926203
149.990234, 7487.941008, 6321.997990, 7888.193792, 5934.739335, 4935.576754, 3548.895828, 3389.547152, 3691.504739
149.800781, 7279.820047, 6267.106918, 7777.795980, 5834.672021, 4835.638854, 3564.795669, 3416.153706, 3734.689894
149.609375, 7217.721738, 6328.422026, 7670.880181, 5785.332088, 4778.247716, 3537.171974, 3368.894283, 3699.104287
149.417969, 7100.268643, 6180.754691, 7611.091266, 5811.154190, 4730.818992, 3530.584999, 3316.279353, 3597.835105
149.226563, 6926.554757, 6205.311710, 7453.510059, 5659.030327, 4716.937906, 3517.607202, 3344.794221, 3659.514526
149.037109, 6929.152719, 6238.809992, 7398.262322, 5669.516254, 4676.233656, 3550.036223, 3364.483700, 3624.175457
148.843750, 6773.667541, 6106.524688, 7319.260545, 5619.147402, 4727.092253, 3548.666314, 3336.842906, 3576.209114
148.652344, 6749.485510, 6119.477030, 7176.173945, 5568.219521, 4679.880414, 3578.960085, 3292.383818, 3611.690298
148.462891, 6676.068920, 6146.885866, 7199.912074, 5492.473830, 4639.391737, 3472.016294, 3286.271762, 3555.005031
148.269531, 6630.090796, 6006.106414, 6981.080326, 5457.108343, 4570.726122, 3482.638415, 3362.140066, 3548.204626
148.078125, 6588.493741, 5991.206614, 7032.478441, 5391.741542, 4559.151204, 3544.339935, 3275.524373, 3532.580591
147.888672, 6492.898178, 6010.551006, 6943.442768, 5439.918702, 4521.638762, 3544.589546, 3347.372343, 3543.200900
147.695313, 6369.451488, 5992.064155, 6881.335350, 5355.648999, 4510.195546, 3467.198133, 3312.066155, 3515.988775
147.505859, 6425.634887, 5864.124988, 6859.947539, 5285.385981, 4492.377073, 3504.718764, 3268.261091, 3577.990336
147.314453, 6330.597155, 5985.005070, 6701.477513, 5328.811157, 4373.732731, 3475.603499, 3274.669831, 3522.612081
147.121094, 6223.685105, 5852.617128, 6597.643714, 5273.191679, 4452.240883, 3481.168599, 3304.757415, 3554.821218
146.933594, 6196.052483, 5904.546884, 6606.352736, 5185.848650, 4403.137317, 3451.454841, 3306.925686, 3520.510221
146.738281, 6139.851937, 5840.634418, 6614.702585, 5237.279394, 4394.046977, 3512.449553, 3247.937003, 3556.227465
146.546875, 6167.130244, 5868.634748, 6486.954181, 5122.325486, 4354.597021