Dodecane_KIT_Temp_85
Wavelength (nm),Abs
2655,0.083756648
2654,0.0807724297
2653,0.07943244278
2652,0.08323095739
2651,0.08345912397
2650,0.08383218199
2649,0.08285102248
2648,0.08327762038
2647,0.08289343864
2646,0.08230114728
2645,0.08326610923
2644,0.0841300264
2643,0.08274417371
2642,0.08191242069
2641,0.08376772702
2640,0.08333788812
2639,0.08345664293
2638,0.08314800262
2637,0.08385645598
2636,0.08278038353
2635,0.08223829418
2634,0.08230376989
2633,0.08221589774
2632,0.07969363779
2631,0.08120793849
2630,0.08305763453
2629,0.08282198012
2628,0.08374217898
2627,0.08294096589
2626,0.082455948
2625,0.08315926045
2624,0.08354066312
2623,0.08290465176
2622,0.08249037713
2621,0.08112213016
2620,0.08340089768
2619,0.08497577906
2618,0.07772113383
2617,0.08210601658
2616,0.08414055407
2615,0.08332102001
2614,0.08391900361
2613,0.08489217609
2612,0.08312097937
2611,0.08306757361
2610,0.08530704677
2609,0.08448917419
2608,0.08217439055
2607,0.07982785255
2606,0.07630358636
2605,0.08105070889
2604,0.08271715045
2603,0.08114861697
2602,0.08370614052
2601,0.08488792181
2600,0.08388324082
2599,0.08334770799
2598,0.08455602825
2597,0.08234094083
2596,0.07977391034
2595,0.0821487084
2594,0.08610127121
2593,0.08605635911
2592,0.08397120237
2591,0.08294519782
2590,0.08318324387
2589,0.08363772184
2588,0.08450282365
2587,0.08469972014
2586,0.08208735287
2585,0.08180286735
2584,0.08325970918
2583,0.08230117708
2582,0.08324556798
2581,0.08596396446
2580,0.08505952358
2579,0.08384706825
2578,0.08355198801
2577,0.08186516166
2576,0.08265946805
2575,0.08272541314
2574,0.08078885823
2573,0.08324149251
2572,0.08347841352
2571,0.08213635534
2570,0.08156439662
2569,0.0842942223
2568,0.08437623829
2567,0.08381020278
2566,0.08343806863
2565,0.0832053721
2564,0.08328401297
2563,0.0834030956
2562,0.08216115832
2561,0.08399312943
2560,0.08408403397
2559,0.08377538621
2558,0.08438670635
2557,0.08383843303
2556,0.08429727703
2555,0.08368708938
2554,0.08311985433
2553,0.08434775472
2552,0.08487067372
2551,0.08559701592
2550,0.08426917344
2549,0.0833645463
2548,0.08464252949
2547,0.08468160033
2546,0.08356416225
2545,0.08376464993
2544,0.08417791873
2543,0.08504594862
2542,0.08440782875
2541,0.0837655291
2540,0.08444999158
2539,0.08434527367
2538,0.08415871859
2537,0.0844925344
2536,0.08489333838
2535,0.08424136043
2534,0.08449360728
2533,0.08430843055
2532,0.0848415345
2531,0.08498383313
2530,0.08487051725
2529,0.08449845016
2528,0.08419790119
2527,0.08418907225
2526,0.08434502035
2525,0.08396781236
2524,0.0838662833
2523,0.08425971866
2522,0.08416980505
2521,0.08462868631
2520,0.08443571627
2519,0.08414756507
2518,0.08423426002
2517,0.08436255902
2516,0.08464878798
2515,0.08473778516
2514,0.08460739255
2513,0.08454521
2512,0.08453688025
2511,0.08453127742
2510,0.08509412408
2509,0.0848518908
2508,0.08459553123
2507,0.08449813724
2506,0.08473332226
2505,0.08454197645
2504,0.08440770954
2503,0.0848120451
2502,0.08518435061
2501,0.08516009897
2500,0.08497829735
2499,0.08488660306
2498,0.08476160467
2497,0.0852066502
2496,0.08488943428
2495,0.08521018177
2494,0.08496365696
2493,0.08512977511
2492,0.08508893102
2491,0.08533041924
2490,0.08524700254
2489,0.0853035152
2488,0.08547770977
2487,0.08542797714
2486,0.08537450433
2485,0.08529633284
2484,0.08561665565
2483,0.0853645131
2482,0.08546736836
2481,0.0854703337
2480,0.08565436304
2479,0.08571338654
2478,0.08561599255
2477,0.08585152775
2476,0.08568450809
2475,0.085701406
2474,0.08559461683
2473,0.08577416092
2472,0.08598122746
2471,0.08594942093
2470,0.08587606996
2469,0.08609265834
2468,0.0862230584
2467,0.08606630564
2466,0.0861177519
2465,0.08602534235
2464,0.08623312414
2463,0.08617261052
2462,0.08610881865
2461,0.08628828824
2460,0.08646656573
2459,0.08648280799
2458,0.08644989133
2457,0.08657784015
2456,0.08636666834
2455,0.08662533015
2454,0.08691260964
2453,0.08644742519
2452,0.08685645461
2451,0.08687352389
2450,0.08687387407
2449,0.08682695776
2448,0.08694249392
2447,0.08681595325
2446,0.08689764887
2445,0.08720479161
2444,0.08719162643
2443,0.08716941625
2442,0.08738974482
2441,0.08709626645
2440,0.08721770346
2439,0.0874004811
2438,0.08729257435
2437,0.08726216108
2436,0.08728481829
2435,0.08736730367
2434,0.08753082901
2433,0.08757190406
2432,0.08777849376
2431,0.08768934757
2430,0.08782231808
2429,0.08772042394
2428,0.08794845641
2427,0.08790747076
2426,0.08806305379
2425,0.08822198212
2424,0.08797365427
2423,0.08793770522
2422,0.08820162714
2421,0.08820473403
2420,0.08833094686
2419,0.08833430707
2418,0.08825455606
2417,0.08824907243
2416,0.08850019425
2415,0.08858548105
2414,0.08854453266
2413,0.08875674009
2412,0.08870326728
2411,0.08857497573
2410,0.08898667991
2409,0.08892126381
2408,0.08887113631
2407,0.08923251182
2406,0.08917872608
2405,0.08910190314
2404,0.08930642903
2403,0.08936201036
2402,0.08908547461
2401,0.08939120173
2400,0.08942641318
2399,0.0893779397
2398,0.08944915235
2397,0.08951254934
2396,0.08957216144
2395,0.08968140185
2394,0.08999373019
2393,0.08985190839
2392,0.09001866728
2391,0.09002713859
2390,0.09005236626
2389,0.09015502781
2388,0.09018198401
2387,0.09031699598
2386,0.09028920531
2385,0.09041637927
2384,0.09062159061
2383,0.09066786617
2382,0.09049700201
2381,0.09073197842
2380,0.09092584997
2379,0.09078420699
2378,0.09091746062
2377,0.09116112441
2376,0.09097716957
2375,0.09113746136
2374,0.09147167951
2373,0.09134403616
2372,0.09121675789
2371,0.09158673137
2370,0.09163007885
2369,0.0915184021
2368,0.09183490276
2367,0.09190642089
2366,0.09176150709
2365,0.09191981703
2364,0.09212897718
2363,0.09209444374
2362,0.09215374291
2361,0.09238699824
2360,0.09244903177
2359,0.09240989387
2358,0.09262835234
2357,0.09295769036
2356,0.09269996732
2355,0.09276621044
2354,0.09296669811
2353,0.09314633161
2352,0.09295807034
2351,0.09319121391
2350,0.09344469756
2349,0.09335566312
2348,0.09330062568
2347,0.093798168
2346,0.09378364682
2345,0.09364251047
2344,0.0938423425
2343,0.09416877478
2342,0.09405156225
2341,0.09396541864
2340,0.09409540892
2339,0.09441830218
2338,0.09431091696
2337,0.09444461763
2336,0.09471641481
2335,0.09470440447
2334,0.0946002081
2333,0.09491544962
2332,0.095123671
2331,0.09491690248
2330,0.0951365605
2329,0.0955022797
2328,0.0954785794
2327,0.0953053236
2326,0.09562582523
2325,0.09576199204
2324,0.09575992823
2323,0.09571368247
2322,0.0958820954
2321,0.0963184908
2320,0.09627797455
2319,0.09609413892
2318,0.09647705406
2317,0.09666480869
2316,0.09653472155
2315,0.09680191427
2314,0.09705793858
2313,0.09701216966
2312,0.09704625607
2311,0.09722521901
2310,0.09757273644
2309,0.09737228602
2308,0.09744112194
2307,0.09774731845
2306,0.09801732749
2305,0.09778090566
2304,0.09787166864
2303,0.09827517718
2302,0.09853041172
2301,0.09834795445
2300,0.09852940589
2299,0.09854801744
2298,0.09895703197
2297,0.09854061157
2296,0.09867483377
2295,0.09909694642
2294,0.09923095256
2293,0.09911229461
2292,0.09920209646
2291,0.09942611307
2290,0.09992402047
2289,0.09975032508
2288,0.09970652312
2287,0.1000013128
2286,0.1000666916
2285,0.1001320481
2284,0.1001877636
2283,0.1004860178
2282,0.1007400751
2281,0.1006243676
2280,0.1008380502
2279,0.10072124
2278,0.101190865
2277,0.1010650396
2276,0.1012136415
2275,0.101208508
2274,0.1017019525
2273,0.1018982977
2272,0.101881735
2271,0.1019018292
2270,0.1021689996
2269,0.1026462913
2268,0.1024699658
2267,0.1027448624
2266,0.1028063297
2265,0.1032811627
2264,0.1031214818
2263,0.1030950248
2262,0.1037336811
2261,0.1039044708
2260,0.1037333161
2259,0.1039930657
2258,0.103977479
2257,0.1042713001
2256,0.1041753814
2255,0.1044069156
2254,0.1045805067
2253,0.1050996631
2252,0.105012849
2251,0.1054118648
2250,0.105332382
2249,0.1054216027
2248,0.1058250219
2247,0.1061807871
2246,0.1060693711
2245,0.1063144207
2244,0.1063272506
2243,0.1066362709
2242,0.1068383008
2241,0.1065861359
2240,0.1072450951
2239,0.1075143814
2238,0.1075406745
2237,0.1075176299
2236,0.1078766063
2235,0.1080994681
2234,0.1084674373
2233,0.1085685343
2232,0.1086448878
2231,0.1088445932
2230,0.1093405709
2229,0.109446235
2228,0.109418191
2227,0.1093974113
2226,0.1095058843
2225,0.1100649536
2224,0.1100864336
2223,0.1102255434
2222,0.1104372889
2221,0.1106599644
2220,0.1107849628
2219,0.1112383083
2218,0.1112426221
2217,0.1113150716
2216,0.1115750074
2215,0.1117513552
2214,0.112170659
2213,0.1124264523
2212,0.1122973263
2211,0.1126497462
2210,0.1130867749
2209,0.1130600423
2208,0.1133057773
2207,0.113371104
2206,0.1136330515
2205,0.113979958
2204,0.1142984182
2203,0.1143743694
2202,0.1144749299
2201,0.1148912013
2200,0.1149806529
2199,0.1151574776
2198,0.1155330986
2197,0.1155920401
2196,0.1158507392
2195,0.1159958318
2194,0.1163470298
2193,0.1166836843
2192,0.1168180853
2191,0.1166808456
2190,0.1171423197
2189,0.1175268888
2188,0.1176223457
2187,0.1178971305
2186,0.1181114018
2185,0.1181844175
2184,0.1183847934
2183,0.1186128706
2182,0.1189332828
2181,0.1190579906
2180,0.1192254797
2179,0.1192438453
2178,0.1197536215
2177,0.1199668944
2176,0.1201256961
2175,0.1205962822
2174,0.1206713617
2173,0.1209287569
2172,0.1210748106
2171,0.1212811023
2170,0.121695593
2169,0.1220130399
2168,0.1220615506
2167,0.1223589182
2166,0.122388944
2165,0.122958079
2164,0.1232119203
2163,0.1233159974
2162,0.1235338822
2161,0.1236682832
2160,0.1238768473
2159,0.1241177544
2158,0.1246296316
2157,0.1248780638
2156,0.1251101047
2155,0.125179857
2154,0.1252985299
2153,0.1255790442
2152,0.1259908825
2151,0.1263506711
2150,0.1266298294
2149,0.1268035918
2148,0.1270799488
2147,0.127387926
2146,0.1275181323
2145,0.1278168261
2144,0.1281656921
2143,0.1284053475
2142,0.1286818087
2141,0.1288449764
2140,0.1290621459
2139,0.1294544488
2138,0.12979424
2137,0.1299536973
2136,0.1302838475
2135,0.1304199994
2134,0.1307519674
2133,0.1310337931
2132,0.1313621402
2131,0.1316022575
2130,0.1319738179
2129,0.1320915222
2128,0.1323472857
2127,0.1326583475
2126,0.1329430193
2125,0.1331825405
2124,0.1336141229
2123,0.1338332593
2122,0.1341187805
2121,0.1344332248
2120,0.1346850842
2119,0.1350813061
2118,0.1351405978
2117,0.1354051232
2116,0.1360307783
2115,0.1360743344
2114,0.1366958916
2113,0.136987552
2112,0.1372147501
2111,0.1374524832
2110,0.1377189159
2109,0.1379055083
2108,0.1383102983
2107,0.138746649
2106,0.1388864815
2105,0.1393556297
2104,0.1396274865
2103,0.1399436742
2102,0.1402000934
2101,0.1408062875
2100,0.140880689
2099,0.1412230432
2098,0.1416091025
2097,0.1420284361
2096,0.142256856
2095,0.1427225322
2094,0.1428863853
2093,0.1432067454
2092,0.143654108
2091,0.1437955946
2090,0.1442621499
2089,0.1446562707
2088,0.1447998881
2087,0.1454785019
2086,0.1457124799
2085,0.1458412111
2084,0.1463507116
2083,0.1468942463
2082,0.1470675915
2081,0.1474781185
2080,0.1477659196
2079,0.1480760723
2078,0.1485425383
2077,0.148800984
2076,0.1492422819
2075,0.1496075243
2074,0.1498948634
2073,0.1503183097
2072,0.1507204324
2071,0.1511059403
2070,0.1512840241
2069,0.1519329995
2068,0.1522006094
2067,0.1525560617
2066,0.1528394669
2065,0.1533678323
2064,0.1537435949
2063,0.1540623754
2062,0.1545590013
2061,0.1548072696
2060,0.1552069336
2059,0.1556403041
2058,0.1559301168
2057,0.1564656645
2056,0.1566930115
2055,0.1572341025
2054,0.1573629975
2053,0.1580320001
2052,0.1583072394
2051,0.1587600559
2050,0.1591277122
2049,0.1595715135
2048,0.1599680036
2047,0.1602908075
2046,0.160602659
2045,0.1611805111
2044,0.1615998298
2043,0.1619110107
2042,0.1624269336
2041,0.1628690064
2040,0.1630903482
2039,0.1635223031
2038,0.1639581174
2037,0.1642233878
2036,0.1647883803
2035,0.1651060134
2034,0.1655062139
2033,0.1659097373
2032,0.1662896574
2031,0.1667904854
2030,0.1671023518
2029,0.1676441431
2028,0.1678728014
2027,0.1682455093
2026,0.1688954532
2025,0.169214502
2024,0.1697331816
2023,0.169941932
2022,0.1704116762
2021,0.1708979458
2020,0.1712222397
2019,0.1718091667
2018,0.1721348614
2017,0.1724848449
2016,0.1729180068
2015,0.1733318418
2014,0.1736194491
2013,0.1741508842
2012,0.1744890958
2011,0.1748528928
2010,0.1752410978
2009,0.1756410301
2008,0.1761412174
2007,0.1764352173
2006,0.1767651439
2005,0.1772843152
2004,0.1777214259
2003,0.1779937595
2002,0.1785477102
2001,0.1788892448
2000,0.1792578101
1999,0.179825902
1998,0.1801326722
1997,0.1805773824
1996,0.1809354424
1995,0.1812229156
1994,0.1817283183
1993,0.1821134686
1992,0.1826454252
1991,0.1829375029
1990,0.1832827181
1989,0.1836182028
1988,0.1839952767
1987,0.1842945963
1986,0.1847451329
1985,0.1850860268
1984,0.1855529845
1983,0.1857554615
1982,0.1862700284
1981,0.1865763217
1980,0.1869565696
1979,0.1873344034
1978,0.1877290606
1977,0.1880383193
1976,0.1885258257
1975,0.1888715178
1974,0.1891953498
1973,0.1894858479
1972,0.1898905039
1971,0.1903405041
1970,0.19062379
1969,0.1909070611
1968,0.1912765205
1967,0.1915507615
1966,0.1920116693
1965,0.1923813075
1964,0.1926916987
1963,0.1930287331
1962,0.1933701336
1961,0.1938203573
1960,0.1941341758
1959,0.1945362538
1958,0.194866851
1957,0.195067063
1956,0.1955117732
1955,0.1958833486
1954,0.1962519437
1953,0.1965930462
1952,0.1969629824
1951,0.1972901672
1950,0.1976695508
1949,0.1979828924
1948,0.1983526945
1947,0.1986321509
1946,0.198988542
1945,0.1994895041
1944,0.1996646374
1943,0.2000193894
1942,0.20029293
1941,0.2007381916
1940,0.201040715
1939,0.2015506774
1938,0.201820612
1937,0.2019710541
1936,0.2025988996
1935,0.2028848529
1934,0.203257829
1933,0.2036176771
1932,0.2037929893
1931,0.204333961
1930,0.2046183944
1929,0.2050322145
1928,0.2053843141
1927,0.2056958824
1926,0.2059585899
1925,0.2061894387
1924,0.2069245428
1923,0.2072367072
1922,0.2071800232
1921,0.2079209238
1920,0.20883587
1919,0.2088196576
1918,0.208939001
1917,0.2092851549
1916,0.2096502036
1915,0.2097959071
1914,0.2104727924
1913,0.2108802646
1912,0.2112357169
1911,0.2117119879
1910,0.2119191438
1909,0.212195605
1908,0.2125094831
1907,0.2125664502
1906,0.2134782374
1905,0.2138847411
1904,0.2140256017
1903,0.2144657522
1902,0.214614436
1901,0.2147433609
1900,0.2155715376
1899,0.2159305066
1898,0.2162217498
1897,0.2166085839
1896,0.2168478668
1895,0.2169632912
1894,0.217587769
1893,0.2179274708
1892,0.2181437314
1891,0.2185084671
1890,0.2191752791
1889,0.2193922997
1888,0.2195075005
1887,0.2198745012
1886,0.2201200575
1885,0.2203861773
1884,0.220920071
1883,0.2212207168
1882,0.2212381214
1881,0.2217562795
1880,0.2221222669
1879,0.2221276164
1878,0.2222468704
1877,0.2225935012
1876,0.223162964
1875,0.2231666893
1874,0.2234927118
1873,0.2241368592
1872,0.2240862846
1871,0.224409923
1870,0.2249347121
1869,0.2247624099
1868,0.2255538404
1867,0.2260638177
1866,0.2256998569
1865,0.2258699089
1864,0.2264083177
1863,0.2265041173
1862,0.2265932709
1861,0.2267095596
1860,0.2273559719
1859,0.2274801284
1858,0.2270614803
1857,0.2275226116
1856,0.2276949435
1855,0.2276267856
1854,0.2280947119
1853,0.2286031693
1852,0.2283892035
1851,0.22834225
1850,0.2283542901
1849,0.2281828374
1848,0.2290297449
1847,0.2293746322
1846,0.2292584926
1845,0.229106456
1844,0.2291080356
1843,0.2289842516
1842,0.2294561565
1841,0.2296911627
1840,0.2296191752
1839,0.2296330929
1838,0.2294837832
1837,0.2296634465
1836,0.2298440635
1835,0.2298427075
1834,0.2297195792
1833,0.229552418
1832,0.229603231
1831,0.2297344357
1830,0.2296711355
1829,0.2296889722
1828,0.2293542176
1827,0.2292797416
1826,0.2295482457
1825,0.2294046134
1824,0.2290931642
1823,0.2291165441
1822,0.2289185226
1821,0.2289863527
1820,0.2289230376
1819,0.2288894504
1818,0.2286514193
1817,0.2284037024
1816,0.228434667
1815,0.2283323556
1814,0.2280525714
1813,0.227935642
1812,0.2277974188
1811,0.2275996804
1810,0.2274144739
1809,0.2272578031
1808,0.2269210368
1807,0.2267936021
1806,0.226579085
1805,0.2264294326
1804,0.22624138
1803,0.2258832306
1802,0.2257504463
1801,0.2256041914
1800,0.225385353
1799,0.2250754237
1798,0.2248638868
1797,0.2245142609
1796,0.224364534
1795,0.2240322083
1794,0.2238276005
1793,0.2236460894
1792,0.2232636362
1791,0.22295928
1790,0.2227226198
1789,0.2225494683
1788,0.2222097367
1787,0.2218636572
1786,0.2215340286
1785,0.2212975323
1784,0.2210277617
1783,0.2206405401
1782,0.2204816043
1781,0.2201757133
1780,0.2197264433
1779,0.2194169164
1778,0.2191458195
1777,0.2188263834
1776,0.218579337
1775,0.2181350887
1774,0.2178813815
1773,0.2176377624
1772,0.2172432691
1771,0.2170104235
1770,0.2165252119
1769,0.2162923217
1768,0.2158721685
1767,0.2156824619
1766,0.2152514011
1765,0.2149304152
1764,0.2145945877
1763,0.2142538875
1762,0.213956967
1761,0.2136376798
1760,0.2132945657
1759,0.2129284739
1758,0.212697044
1757,0.2124176919
1756,0.2119243741
1755,0.2116785198
1754,0.2113800645
1753,0.211025089
1752,0.210597381
1751,0.2102892846
1750,0.2099888921
1749,0.2096417695
1748,0.2093611509
1747,0.2090118825
1746,0.208619535
1745,0.2083088011
1744,0.2079719007
1743,0.2076092213
1742,0.2073183209
1741,0.206895858
1740,0.2066064179
1739,0.2062558234
1738,0.2059335858
1737,0.2056321204
1736,0.205227986
1735,0.2049330622
1734,0.2044774741
1733,0.2040727735
1732,0.203873992
1731,0.2034730613
1730,0.2030700296
1729,0.2027691454
1728,0.2023213059
1727,0.2020160258
1726,0.201755479
1725,0.2012280375
1724,0.2008933872
1723,0.2005639672
1722,0.200165689
1721,0.1998827457
1720,0.1995001584
1719,0.1990467161
1718,0.1986614764
1717,0.1982209533
1716,0.1979102045
1715,0.1975765526
1714,0.1971114129
1713,0.1967579722
1712,0.1963338256
1711,0.1959170401
1710,0.1955497116
1709,0.1951461285
1708,0.1948430091
1707,0.1944062561
1706,0.1939982474
1705,0.1935225725
1704,0.1931564808
1703,0.1926635057
1702,0.1923769116
1701,0.1919456571
1700,0.1914900094
1699,0.1911374032
1698,0.1906279624
1697,0.190264225
1696,0.189921841
1695,0.1894660741
1694,0.189021498
1693,0.1885997653
1692,0.1881408244
1691,0.1878690869
1690,0.1875183284
1689,0.1869436353
1688,0.186452195
1687,0.1861404628
1686,0.1857224703
1685,0.1852923334
1684,0.1848079562
1683,0.1843847781
1682,0.1839897037
1681,0.1836415529
1680,0.1831757128
1679,0.1827314943
1678,0.1823721826
1677,0.1818626374
1676,0.1814926416
1675,0.1810774803
1674,0.1806536466
1673,0.1803114563
1672,0.1798965633
1671,0.1795447618
1670,0.1790568531
1669,0.1787168235
1668,0.1782814264
1667,0.1778839827
1666,0.1774759591
1665,0.1771303117
1664,0.1766860783
1663,0.1761345863
1662,0.1758297384
1661,0.1754340231
1660,0.1750641167
1659,0.1745619476
1658,0.1742462963
1657,0.1738357991
1656,0.1733959317
1655,0.1730439514
1654,0.1726169437
1653,0.1721965969
1652,0.1717609912
1651,0.1714187562
1650,0.1710584313
1649,0.1706298739
1648,0.1701190174
1647,0.1698208153
1646,0.1694155782
1645,0.1690516472
1644,0.1686588526
1643,0.168224737
1642,0.1677581668
1641,0.1674444526
1640,0.1670507938
1639,0.1666263193
1638,0.1663278043
1637,0.1658845246
1636,0.1654445678
1635,0.1651536375
1634,0.1647541374
1633,0.1643075347
1632,0.1639155746
1631,0.1635146439
1630,0.1631818414
1629,0.1628255397
1628,0.1625133306
1627,0.1620704979
1626,0.1617594361
1625,0.1614326388
1624,0.1610413045
1623,0.1606820673
1622,0.1602674425
1621,0.1599387079
1620,0.1596295685
1619,0.159233287
1618,0.1588349342
1617,0.1585202515
1616,0.1581820995
1615,0.1578396261
1614,0.1575201154
1613,0.1571085006
1612,0.1568077952
1611,0.1564631015
1610,0.1562378854
1609,0.1558803767
1608,0.1555664539
1607,0.1552544981
1606,0.1549172401
1605,0.1546466947
1604,0.1543867737
1603,0.1540725529
1602,0.1537229419
1601,0.1534239948
1600,0.1531480104
1599,0.1529034078
1598,0.1526859552
1597,0.1523784101
1596,0.1521053612
1595,0.1517882794
1594,0.1515245885
1593,0.1512718797
1592,0.1510586143
1591,0.1507858783
1590,0.1505114585
1589,0.1503031254
1588,0.1500226855
1587,0.1497722417
1586,0.1495738328
1585,0.1494427621
1584,0.1491481513
1583,0.1488718837
1582,0.1487253308
1581,0.1485320777
1580,0.1482957751
1579,0.1480707228
1578,0.147834301
1577,0.1476025432
1576,0.1474246085
1575,0.1472576261
1574,0.1470850706
1573,0.1468723863
1572,0.1466823071
1571,0.146481365
1570,0.1463324279
1569,0.146173358
1568,0.1459830105
1567,0.1457469761
1566,0.145627439
1565,0.1454482228
1564,0.1452519298
1563,0.1451115906
1562,0.1450024396
1561,0.1447909325
1560,0.1446478069
1559,0.1445043087
1558,0.1442803741
1557,0.144176051
1556,0.1440223157
1555,0.1438795626
1554,0.1436986178
1553,0.1435719579
1552,0.1434311122
1551,0.1432775706
1550,0.1431738883
1549,0.1430598348
1548,0.1429190785
1547,0.1427979022
1546,0.142605722
1545,0.1425276846
1544,0.1423823237
1543,0.1422622055
1542,0.1421342045
1541,0.1419877559
1540,0.1418617815
1539,0.1418350041
1538,0.1416953653
1537,0.1415431947
1536,0.14148058
1535,0.141370669
1534,0.1413430274
1533,0.1412139088
1532,0.1410599202
1531,0.1409256607
1530,0.1408298016
1529,0.140752241
1528,0.1406816244
1527,0.1405903995
1526,0.1404720843
1525,0.1403385401
1524,0.1403016299
1523,0.1402131766
1522,0.1401596963
1521,0.1400870383
1520,0.1399473548
1519,0.1398498267
1518,0.1398235708
1517,0.1397628635
1516,0.1396123171
1515,0.1395650208
1514,0.1395252496
1513,0.1394206434
1512,0.1393097937
1511,0.1392635852
1510,0.1392291635
1509,0.1391490251
1508,0.1390999854
1507,0.1390269399
1506,0.1389334947
1505,0.1388678849
1504,0.1388351619
1503,0.1387965679
1502,0.1387224197
1501,0.1386112422
1500,0.1385329664
1499,0.1385014802
1498,0.1384755224
1497,0.1384275258
1496,0.1383816004
1495,0.1382440031
1494,0.1382710785
1493,0.1382643133
1492,0.138158977
1491,0.1380802095
1490,0.1380978227
1489,0.1379611194
1488,0.1379906386
1487,0.1379498839
1486,0.1379114836
1485,0.1378237903
1484,0.1377948523
1483,0.1377677619
1482,0.137691915
1481,0.1376749128
1480,0.1376422942
1479,0.1376053989
1478,0.1375489831
1477,0.1375084072
1476,0.1374969631
1475,0.1374623626
1474,0.1373663098
1473,0.1373582929
1472,0.1373177618
1471,0.1372672021
1470,0.1372454315
1469,0.1372358799
1468,0.1371842623
1467,0.1371759176
1466,0.1370714158
1465,0.1370834112
1464,0.1370429099
1463,0.137069881
1462,0.1370023787
1461,0.1369362772
1460,0.1368928105
1459,0.1369368136
1458,0.1368683726
1457,0.1368549615
1456,0.1368134171
1455,0.1368044913
1454,0.1367510706
1453,0.136689499
1452,0.13666749
1451,0.1366676986
1450,0.1367069185
1449,0.1365745515
1448,0.1366423368
1447,0.1365413368
1446,0.1364967078
1445,0.1365410835
1444,0.1364846528
1443,0.1364800483
1442,0.1364538223
1441,0.1364087015
1440,0.1363704652
1439,0.1363106966
1438,0.1363174915
1437,0.1363136023
1436,0.1363124698
1435,0.136217311
1434,0.1362027228
1433,0.1361982226
1432,0.1361969858
1431,0.1361952424
1430,0.1360940635
1429,0.1360807419
1428,0.1361528039
1427,0.136050716
1426,0.1360326856
1425,0.1359467357
1424,0.1359747648
1423,0.1359639317
1422,0.1359237581
1421,0.135864079
1420,0.1358539611
1419,0.1358211786
1418,0.1358198076
1417,0.1357648373
1416,0.1357347667
1415,0.1357875317
1414,0.135704726
1413,0.1357114166
1412,0.1356625557
1411,0.1355794966
1410,0.1356303245
1409,0.1356752962
1408,0.1355664432
1407,0.135564819
1406,0.1355733126
1405,0.1356268972
1404,0.1355825365
1403,0.1354624331
1402,0.1354106367
1401,0.1354266554
1400,0.1355555505
1399,0.1354852766
1398,0.1353426874
1397,0.1353343725
1396,0.1354524642
1395,0.1355233639
1394,0.1353570372
1393,0.1353462934
1392,0.1354789138
1391,0.1353984773
1390,0.1352582425
1389,0.1353213638
1388,0.1353652775
1387,0.1352762282
1386,0.1352727711
1385,0.1352140307
1384,0.1351585835
1383,0.1352567524
1382,0.1353664398
1381,0.1353322268
1380,0.135288462
1379,0.1350426525
1378,0.135026902
1377,0.1350212544
1376,0.1349782199
1375,0.1349021047
1374,0.1349429786
1373,0.1347610801
1372,0.1348890513
1371,0.1349421293
1370,0.1348944157
1369,0.1347863227
1368,0.1348338872
1367,0.1347408593
1366,0.1346426159
1365,0.1347436756
1364,0.134707883
1363,0.1346403211
1362,0.1347895712
1361,0.1347035468
1360,0.1346361935
1359,0.1346154362
1358,0.1345709413
1357,0.1345900297
1356,0.1345876306
1355,0.1345666349
1354,0.1345042139
1353,0.1345814914
1352,0.1345363259
1351,0.1345496923
1350,0.1345023513
1349,0.1344825178
1348,0.1344797313
1347,0.1345066577
1346,0.1345218271
1345,0.1344807595
1344,0.1344472319
1343,0.1344213784
1342,0.1344581395
1341,0.1344982833
1340,0.1345254928
1339,0.1344983876
1338,0.1344432831
1337,0.1345113814
1336,0.1345214695
1335,0.1345010102
1334,0.1345222145
1333,0.1344889402
1332,0.1344807148
1331,0.1345148385
1330,0.1345582753
1329,0.1345849484
1328,0.1345261633
1327,0.1345746815
1326,0.1345790178
1325,0.1346147358
1324,0.1346161067
1323,0.1345869303
1322,0.1346161067
1321,0.1346743554
1320,0.1347088367
1319,0.1346812397
1318,0.134728387
1317,0.1347146332
1316,0.1347460449
1315,0.1347961128
1314,0.1347945482
1313,0.1348300427
1312,0.1348420084
1311,0.134905681
1310,0.1349057853
1309,0.1349952519
1308,0.1349058598
1307,0.1350382715
1306,0.1350931078
1305,0.1350783706
1304,0.1351296753
1303,0.13517268
1302,0.135194689
1301,0.1352839023
1300,0.1353060603
1299,0.1353678554
1298,0.1353931278
1297,0.1354138106
1296,0.1354620159
1295,0.135589689
1294,0.135604009
1293,0.1356374025
1292,0.1357169002
1291,0.1357447058
1290,0.1358446479
1289,0.1359432936
1288,0.1359612048
1287,0.136002779
1286,0.1360548586
1285,0.1361459792
1284,0.1362448782
1283,0.1363379359
1282,0.1363818496
1281,0.136468783
1280,0.1365230829
1279,0.1365856081
1278,0.1367376298
1277,0.1367809027
1276,0.1368308067
1275,0.1369362473
1274,0.1370375901
1273,0.1371262223
1272,0.1372848749
1271,0.137363404
1270,0.1374439895
1269,0.1375358254
1268,0.1376229227
1267,0.137740463
1266,0.1378840208
1265,0.1379774213
1264,0.1381030232
1263,0.1382018328
1262,0.1382774115
1261,0.1384211928
1260,0.138568759
1259,0.1386657059
1258,0.1388281882
1257,0.1388954371
1256,0.139029637
1255,0.1391892582
1254,0.1393173486
1253,0.1394478381
1252,0.1395512074
1251,0.1397575289
1250,0.139830783
1249,0.1400215328
1248,0.1401877701
1247,0.140316546
1246,0.1404828876
1245,0.1406213194
1244,0.1408006996
1243,0.1409695297
1242,0.1411107183
1241,0.1412826777
1240,0.1413843185
1239,0.1415731013
1238,0.1417271197
1237,0.1419471949
1236,0.1420958191
1235,0.1422079653
1234,0.1423901618
1233,0.1426267922
1232,0.1428005248
1231,0.1429758221
1230,0.14319776
1229,0.1433916092
1228,0.1435499787
1227,0.1437996328
1226,0.143988058
1225,0.1441346407
1224,0.1443911344
1223,0.1445600241
1222,0.1448119581
1221,0.1449526399
1220,0.1452187002
1219,0.1454427838
1218,0.1456927359
1217,0.1458559036
1216,0.1460938156
1215,0.1463598013
1214,0.1466121823
1213,0.1468473822
1212,0.1470848024
1211,0.147340104
1210,0.1475586444
1209,0.1478288919
1208,0.1481224149
1207,0.1483658254
1206,0.1485904604
1205,0.1488757133
1204,0.1491846144
1203,0.1494074464
1202,0.1497413218
1201,0.1500081271
1200,0.1502905488
1199,0.1503686756
1198,0.1506725252
1197,0.1509562433
1196,0.1512493342
1195,0.1515543461
1194,0.1518463939
1193,0.1521583796
1192,0.152467832
1191,0.1527346224
1190,0.1530550569
1189,0.1534045637
1188,0.1537043601
1187,0.1539665312
1186,0.1542708874
1185,0.1546213031
1184,0.154943198
1183,0.1552591175
1182,0.1555615216
1181,0.1558696628
1180,0.1562053263
1179,0.1565737575
1178,0.1568928212
1177,0.1572156996
1176,0.1575404555
1175,0.1578155756
1174,0.1581517607
1173,0.1585212648
1172,0.1588503122
1171,0.1591001153
1170,0.1594837159
1169,0.1597896069
1168,0.1601297706
1167,0.1604792178
1166,0.1607887
1165,0.1610765606
1164,0.1614534259
1163,0.1617662013
1162,0.1620948166
1161,0.1624490917
1160,0.1627640128
1159,0.1631144583
1158,0.1634566337
1157,0.1638237238
1156,0.1641463935
1155,0.1644945592
1154,0.1648271084
1153,0.1652142256
1152,0.1655688882
1151,0.1659638733
1150,0.1663307697
1149,0.1666983664
1148,0.1671041846
1147,0.1674829423
1146,0.1678395718
1145,0.1682550162
1144,0.1686948836
1143,0.1691338718
1142,0.1695700437
1141,0.1699879766
1140,0.1703753471
1139,0.1708851308
1138,0.1713678986
1137,0.1718154699
1136,0.1722661704
1135,0.1727976352
1134,0.1732828468
1133,0.1738187224
1132,0.1743840724
1131,0.1748717129
1130,0.1753685474
1129,0.175883323
1128,0.1764197052
1127,0.1769876033
1126,0.1775262803
1125,0.1780785471
1124,0.1786113232
1123,0.1792142838
1122,0.1797915995
1121,0.1803369075
1120,0.1809010357
1119,0.1815041602
1118,0.1820816994
1117,0.1826191396
1116,0.1831743717
1115,0.1837469488
1114,0.1843084097
1113,0.1848804504
1112,0.185468778
1111,0.1859790385
1110,0.1865066886
1109,0.1870488673
1108,0.1875909716
1107,0.1881484836
1106,0.1886768192
1105,0.1890814602
1104,0.1895614713
1103,0.1900282502
1102,0.1905380785
1101,0.1910000741
1100,0.1913760155
1099,0.1918044835
1098,0.1922096461
1097,0.1926113069
1096,0.1929880381
1095,0.1933004856
1094,0.1935886145
1093,0.1939448267
1092,0.1942851394
1091,0.1945945919
1090,0.1947952956
1089,0.1950071901
1088,0.1953357458
1087,0.1955311447
1086,0.1957337856
1085,0.1959024072
1084,0.1961458325
1083,0.1962988079
1082,0.1965194494
1081,0.1967017502
1080,0.1968819499
1079,0.1970397383
1078,0.1972572654
1077,0.1973716319
1076,0.197588712
1075,0.1977212876
1074,0.1978876293
1073,0.198145166
1072,0.1983463615
1071,0.1985419691
1070,0.1987522393
1069,0.1989179552
1068,0.1991664767
1067,0.1994051784
1066,0.1996447146
1065,0.199920401
1064,0.2001771778
1063,0.2005164474
1062,0.2007921934
1061,0.2010978013
1060,0.2013778239
1059,0.2016645819
1058,0.2020182461
1057,0.2023458481
1056,0.2027553022
1055,0.2030518502
1054,0.2034158707
1053,0.2037810683
1052,0.2041591257
1051,0.2045654505
1050,0.2049716562
1049,0.2052769512
1048,0.2056619227
1047,0.2060274631
1046,0.2063991576
1045,0.2068198323
1044,0.2071800232
1043,0.2074745595
1042,0.2078184038
1041,0.2082159221
1040,0.208462134
1039,0.208787933
1038,0.2090835571
1037,0.2094046623
1036,0.2096224725
1035,0.2098439634
1034,0.210027054
1033,0.2102734149
1032,0.2104383707
1031,0.2106096148
1030,0.2107323855
1029,0.2108276039
1028,0.2109502703
1027,0.2110341787
1026,0.2111037523
1025,0.2111536264
1024,0.2111213356
1023,0.2111006379
1022,0.2111428976
1021,0.2110756338
1020,0.2110008597
1019,0.210920617
1018,0.2107976973
1017,0.2106894106
1016,0.2105863243
1015,0.2105023414
1014,0.2103015184
1013,0.2100801766
1012,0.2099485546
1011,0.2098004073
1010,0.2095468491
1009,0.2093931288
1008,0.209131524
1007,0.2089252621
1006,0.2086892277
1005,0.208510533
1004,0.2082498819
1003,0.2079436183
1002,0.2076987922
1001,0.2073791921
1000,0.207136184
999,0.2068835646
998,0.206502378
997,0.20622769
996,0.2059157491
995,0.2055698186
994,0.2052070647
993,0.2049002051
992,0.2044945657
991,0.2041839361
990,0.2037542909
989,0.2034261674
988,0.2030651569
987,0.2026727796
986,0.2023643702
985,0.2019520551
984,0.201624468
983,0.2011762857
982,0.2008003742
981,0.2004388571
980,0.2000986189
979,0.1997127682
978,0.1994363219
977,0.1989940405
976,0.1986755729
975,0.1983152628
974,0.1980254054
973,0.19772394
972,0.1973835379
971,0.1970116645
970,0.1968322545
969,0.1964908838
968,0.1960752904
967,0.1958616078
966,0.1956132203
965,0.1952759773
964,0.1951075494
963,0.1948016137
962,0.1944304407
961,0.1941701174
960,0.1939419955
959,0.1936326474
958,0.1933079958
957,0.1930117309
956,0.1927307993
955,0.1923988312
954,0.1920793355
953,0.1917671561
952,0.1914786696
951,0.1911304146
950,0.1908598989
949,0.1904268563
948,0.1900911927
947,0.1896861643
946,0.1893713772
945,0.1890056133
944,0.1886235029
943,0.1882854849
942,0.1877718568
941,0.1874509305
940,0.187217623
939,0.1867446154
938,0.1863491833
937,0.1859071851
936,0.1855798066
935,0.1852046102
934,0.1848776489
933,0.1843980849
932,0.1839802414
931,0.1836456656
930,0.1832005382
929,0.1829317808
928,0.1824756116
927,0.1820170283
926,0.1816474497
925,0.1812103391
924,0.1808405071
923,0.180358395
922,0.180140242
921,0.1796076596
920,0.1792183816
919,0.1788186729
918,0.1784021854
917,0.1779059321
916,0.1774750948
915,0.1770766377
914,0.1768757999
913,0.1764655262
912,0.1759863049
911,0.1755680293
910,0.1753097028
909,0.1747701615
908,0.1744517684
907,0.1741720587
906,0.1736622304
905,0.1732845008
904,0.1732046902
903,0.1726914793
902,0.1723569036
901,0.1718929559
900,0.1717475057
899,0.1732932925
898,0.1634664834
897,0.173755452
896,0.1759226024
895,0.1737906039
894,0.1669010967
893,0.1691958904
892,0.1763627827
891,0.1728971899
890,0.1700421274
889,0.1721930057
888,0.1705319583
887,0.1717393845
886,0.1744355112
885,0.1663866937
884,0.1678230017
883,0.1714540571
882,0.1741985828
881,0.1688946486
880,0.1713312119
879,0.1657669246
878,0.1652144194
877,0.1695585698
876,0.1686806828
875,0.1663887501
874,0.1705814153
873,0.1688175201
872,0.1666159183
871,0.169200018
870,0.165941447
869,0.1640285552
868,0.1663401872
867,0.1663816124
866,0.1656399965
865,0.1655637026
864,0.16559349
863,0.1666736603
862,0.1655146182
861,0.1662575006
860,0.1658900529
859,0.1658724546
858,0.1665426791
857,0.1656193733
856,0.1647060961
855,0.1641076058
854,0.1648650616
853,0.1647715718
852,0.1639259905
851,0.1643678844
850,0.1653016657
849,0.1642617732
848,0.1658965498
847,0.1643602997
846,0.1637232155
845,0.1646088213
844,0.1642546803
843,0.1640597433
842,0.1644854099
841,0.1640175283
840,0.1634705514
839,0.1644234508
838,0.1643712521
837,0.1637295485
836,0.1642697901
835,0.1638814807
834,0.164047882
833,0.1641857177
832,0.1643925309
831,0.16421251
830,0.1645979285
829,0.164526388
828,0.1650525928
827,0.1648179591
826,0.1654236913
825,0.1649349183
824,0.1648653299
823,0.1655168235
822,0.1652601212
821,0.1654310822
820,0.1656692326
819,0.1655525565
818,0.1659510583
817,0.1662577391
816,0.1665173024
815,0.1661498994
814,0.1662214398
813,0.1663838476
812,0.1671354175
811,0.1673835218
810,0.1676850021
809,0.1680521816
808,0.1680577397
807,0.1678399146
806,0.1682456285
805,0.1687212288
804,0.1691461802
803,0.1688311845
802,0.169814229
801,0.1695272475
800,0.1697200239
799,0.1700399816
798,0.1700548679
797,0.1706891656
796,0.170829013
795,0.1711075157
794,0.1713579148
793,0.1714597791
792,0.1717357785
791,0.1719930321
790,0.1719516814
789,0.1722354144
788,0.1724114865
787,0.1731850505
786,0.1730125248
785,0.1732144058
784,0.173702389
783,0.1737398505
782,0.1741955727
781,0.1742100716
780,0.1747261435
779,0.1747177541
778,0.1752337366
777,0.1753891706
776,0.1759485751
775,0.1762257665
774,0.1765930057
773,0.1769939065
772,0.1774156243
771,0.177653268
770,0.1779935211
769,0.1786049157
768,0.1786753684
767,0.179723382
766,0.1795028448
765,0.1804269105
764,0.1809218079
763,0.1815244108
762,0.1817602664
761,0.1827204525
760,0.1832327843
759,0.1835271865
758,0.1841970682
757,0.1844994873
756,0.1851586103
755,0.1858397573
754,0.186169669
753,0.1865570694
752,0.1870056242
751,0.1874721795
750,0.1879154444
749,0.188646242
748,0.1888095438
747,0.1891868562
746,0.1896307617
745,0.1898735464
744,0.1900138557
743,0.1901570857
742,0.1906532198
741,0.1903849244
740,0.1908199638
739,0.1911244243
738,0.1908491701
737,0.191361323
736,0.1915401816
735,0.1913858652
734,0.1913835704
733,0.1913217604
732,0.1915892661
731,0.1915491521
730,0.1916857362
729,0.1918512285
728,0.1918382198
727,0.1920067966
726,0.1920731813
725,0.1923372
724,0.1924173385
723,0.1924471408
722,0.1924753189
721,0.1928837299
720,0.1928346902
719,0.1929934025
718,0.1930853277
717,0.1932354867
716,0.1931999028
715,0.1938373446
714,0.1940035075
713,0.1941329986
712,0.1940432787
711,0.1945935786
710,0.1946058124
709,0.1947389841
708,0.1951725781
707,0.195246309
706,0.1952234656
705,0.1954270899
704,0.1952941567
703,0.1954525411
702,0.1954035014
701,0.1955088079
700,0.1954328865
699,0.1955239624
698,0.1955476701
697,0.1952234209
696,0.1952351928
695,0.1950663775
694,0.1950541288
693,0.1948205084
692,0.19480142
691,0.1946807951
690,0.1943610609
689,0.194149524
688,0.1940093637
687,0.1937917173
686,0.193821609
685,0.1937975138
684,0.1934745908
683,0.1933587492
682,0.1929360777
681,0.1928775907
680,0.1927120686
679,0.1925561726
678,0.1923198253
677,0.1922105253
676,0.1920574307
675,0.1918631047
674,0.1916599274
673,0.1914331615
672,0.1913283169
671,0.190965727
670,0.1907827705
669,0.1908076257
668,0.190367505
667,0.1902642697
666,0.1901027858
665,0.1900064349
664,0.1897986829
663,0.1895403564
662,0.1895444095
661,0.1892585009
660,0.1893451512
659,0.1891239136
658,0.1889698207
657,0.1888594329
656,0.1887864619
655,0.188693881
654,0.1884731352
653,0.188515082
652,0.1883371174
651,0.188175112
650,0.1881795824
649,0.1879325956
648,0.1877955645
647,0.1877360791
646,0.1875666529
645,0.1875335276
644,0.1872891784
643,0.1873975992
642,0.1871421039
641,0.1868292242
640,0.1866546124
639,0.1866949201
638,0.1864906996
637,0.1863033324
636,0.186256513
635,0.1860330701
634,0.1860001683
633,0.1859383285
632,0.1856471598
631,0.1855480522
630,0.1855869442
629,0.1853839159
628,0.1853006184
627,0.1851418465
626,0.1851879954
625,0.1850531995
624,0.1850011647
623,0.1849622875
622,0.1847628355
621,0.1848425716
620,0.1846459508
619,0.1845373064
618,0.1846299171
617,0.1846926063
616,0.1846501082
615,0.1847601384
614,0.1847275347
613,0.184681043
612,0.1848053336
611,0.1848345697
610,0.1849454045
609,0.185101971
608,0.185211271
607,0.18529661
606,0.1854404062
605,0.1855583787
604,0.1859361827
603,0.1861372888
602,0.1864339411
601,0.1866912246
600,0.1866909415
599,0.1871346533
598,0.1873470694
597,0.1874653101
596,0.1878476143
595,0.1879236996
594,0.1884619445
593,0.1885627508
592,0.1888737977
591,0.189037621
590,0.1891638041
589,0.1893598437
588,0.1894213408
587,0.1896162182
586,0.1898253709
585,0.1899306625
584,0.1900137365
583,0.1901389658
582,0.1901005805
581,0.1901312172
580,0.1900581568
579,0.1903666556
578,0.190567866
577,0.190663293
576,0.1907823235
575,0.1911248267
574,0.191322118
573,0.1915018708
572,0.1919229478
571,0.1922833472
570,0.1927241385
569,0.1929915398
568,0.1934897155
567,0.1940386295
566,0.194667697
565,0.1950447559
564,0.1954598427
563,0.1962104589
562,0.1964764446
561,0.1969908476
560,0.1974967569
559,0.1978823245
558,0.1984147877
557,0.1984313875
556,0.1987127662
555,0.1988824755
554,0.1993308663
553,0.1989882588
552,0.1991681457
551,0.1986824125
550,0.1987463385
549,0.1987590343
548,0.1986760348
547,0.1984144598
546,0.1980827004
545,0.1980986744
544,0.1981179118
543,0.1979249865
542,0.1977850795
541,0.197867021
540,0.1979692131
539,0.1979855895
538,0.1981817335
537,0.1984490454
536,0.1987505555
535,0.1992641389
534,0.1995083094
533,0.2000023276
532,0.2001985162
531,0.2008244991
530,0.2012205124
529,0.2015441805
528,0.2020159364
527,0.2023269534
526,0.2026667148
525,0.203054294
524,0.2034880817
523,0.2036106735
522,0.2038130164
521,0.2038092613
520,0.204212442
519,0.2040009648
518,0.2040370703
517,0.2040495425
516,0.204212442
515,0.2042166591
514,0.2043608129
513,0.2041802853
512,0.2045596838
511,0.2046954036
510,0.2048166096
509,0.2050821781
508,0.2053388357
507,0.2055284381
506,0.2058341056
505,0.2063469887
504,0.2065052092
503,0.2072782218
502,0.2077992857
501,0.2082706541
500,0.2088192403
499,0.2094308287
498,0.2100106925
497,0.2105021626
496,0.2109251618
495,0.2115212679
494,0.2120495886
493,0.212109074
492,0.2122512162
491,0.2123114467
490,0.2123422474
489,0.2121032476
488,0.2116567641
487,0.2115541697
486,0.2109753489
485,0.2106476575
484,0.210756734
483,0.2101971358
482,0.2099110335
481,0.2097392231
480,0.2096712589
479,0.2098546624
478,0.2100567818
477,0.2101237178
476,0.2105664015
475,0.2108848542
474,0.2113509178
473,0.2121874094
472,0.2125885338
471,0.213194117
470,0.2137562782
469,0.2140509039
468,0.2146492302
467,0.2146543711
466,0.2150826603
465,0.2149352878
464,0.2148721963
463,0.2145978957
462,0.2144728303
461,0.2141310424
460,0.2138606757
459,0.2132960856
458,0.2130848467
457,0.2129171491
456,0.2125664055
455,0.2128490657
454,0.2126698345
453,0.2126768976
452,0.2132402509
451,0.2137255818
450,0.213870883
449,0.2142394334
448,0.2146055698
447,0.2150321603
446,0.2156283557
445,0.2158991396
444,0.2164223492
443,0.2170814276
442,0.2174075246
441,0.2177833617
440,0.2180597335
439,0.2180019021
438,0.2182156444
437,0.2183714956
436,0.2189926505
435,0.2191829979
434,0.2193012238
433,0.2197910994
432,0.2198154926
431,0.2202147841
430,0.2204542905
429,0.2208404392
428,0.2217370421
427,0.2220643759
426,0.2222627103
425,0.2226407379
424,0.2232396156
423,0.2237828821
422,0.2244999856
421,0.2244859189
420,0.224762857
419,0.2252814472
418,0.2252995074
417,0.2251677066
416,0.2253096402
415,0.2256176919
414,0.2256152481
413,0.2259269953
412,0.2262652516
411,0.2263509929
410,0.226770252
409,0.2272166461
408,0.2279199362
407,0.2284777761
406,0.2292330861
405,0.2297613174
404,0.2305919528
403,0.2311510146
402,0.2320154458
401,0.2324524075
400,0.2328228652
399,0.2336511761
398,0.2338437438
397,0.2343173176
396,0.2345702052
395,0.2350201607
394,0.2353096455
393,0.2354945838
392,0.2357334495
391,0.2364394367
390,0.2366137058
389,0.2370753437
388,0.237481162
387,0.2381968498
386,0.2388050109
385,0.2391922474
384,0.2395731807
383,0.2401552349
382,0.2412550002
381,0.2418343425
380,0.2426242232
379,0.2437318116
378,0.244384855
377,0.2447267622
376,0.2459720671
375,0.2465276867
374,0.2471836209
373,0.2486910522
372,0.2493837774
371,0.2502544522
370,0.2506058216
369,0.2514875829
368,0.2518001795
367,0.2524329424
366,0.252782166
365,0.2538947761
364,0.2541822791
363,0.2542331219
362,0.2547266781
361,0.2558001578
360,0.2566316724
359,0.2572361231
358,0.2587040663
357,0.2595440745
356,0.2612747848
355,0.2624129951
354,0.2635872066
353,0.2642081678
352,0.2653073072
351,0.266436547
350,0.2673715055
349,0.2665231824
348,0.2663294673
347,0.2675650418
346,0.2682315707
345,0.2693547904
344,0.2703074217
343,0.2707334459
342,0.2718634605
341,0.2734314501
340,0.2739410102
339,0.2753094435
338,0.2763476372
337,0.2777431607
336,0.2798623741
335,0.2809752226
334,0.2817200422
333,0.2828398645
332,0.2837598324
331,0.2848969996
330,0.2864790559
329,0.2867670357
328,0.2884241045
327,0.2897335887
326,0.2907338142
325,0.2921931148
324,0.2932885587
323,0.2949699163
322,0.2968542278
321,0.2999477088
320,0.3015504181
319,0.302410543
318,0.3041144609
317,0.3056004941
316,0.3074794114
315,0.3096846938
314,0.3120650351
313,0.3134287596
312,0.3147341311
311,0.3172330558
310,0.3199989796
309,0.3214962184
308,0.3237153292
307,0.3261762261
306,0.3283190131
305,0.3313336968
304,0.3332748413
303,0.3356382549
302,0.3381854594
301,0.3404324353
300,0.3426162899
299,0.3449290693
298,0.3481635153
297,0.3502203524
296,0.352268666
295,0.3548799753
294,0.3580615819
293,0.3606829345
292,0.3635766208
291,0.3659429848
290,0.3691411018
289,0.3715163469
288,0.3738503754
287,0.3768726587
286,0.3796556294
285,0.3818763494
284,0.3841420412
283,0.3865999579
282,0.3890689015
281,0.3907554448
280,0.3926987648
279,0.394331485
278,0.3959789872
277,0.398119092
276,0.3988457918
275,0.4005328715
274,0.4009611309
273,0.402110368
272,0.4024628401
271,0.4030594528
270,0.4029475451
269,0.4025509655
268,0.4027240276
267,0.4024845064
266,0.4011219442
265,0.4009391367
264,0.4003997445
263,0.39939785
262,0.3979756236
261,0.3965737224
260,0.3956520855
259,0.394341141
258,0.3920820653
257,0.3909938335
256,0.3890953958
255,0.3877183795
254,0.385561794
253,0.3831318319
252,0.3805874586
251,0.3780485392
250,0.3751893342
249,0.3722144663
248,0.3687856197
247,0.3653104305
246,0.36181584
245,0.3582500815
244,0.3537373245
243,0.3501580954
242,0.3466390073
241,0.3425847292
240,0.339145124
239,0.3356570005
238,0.3317886889
237,0.3296335936
236,0.326477766
235,0.3231626153
234,0.3207974434
233,0.3183754683
232,0.3164120913
231,0.3147174418
230,0.3130761087
229,0.3119946718
228,0.3104908168
227,0.3105948269
226,0.3108422458
225,0.3125745058
224,0.3153657019
223,0.3201274872
222,0.3261339962
221,0.334422946
220,0.3451118469
219,0.3580740094
218,0.3742107153
217,0.392198056
216,0.4122477472
215,0.433644563
214,0.4557887912
213,0.4783368111
212,0.4998995364
211,0.5200889111
210,0.5400105715
209,0.5539940596
208,0.567376852
207,0.5770603418
206,0.5821666121
205,0.5843684077
204,0.5844425559
203,0.5809200406
202,0.5741788745
201,0.5671723485
200,0.5581882596
