Dodecane_KIT_Vac_75
Wavelength (nm),Abs
2655,0.07666245848
2654,0.07693533599
2653,0.07945137471
2652,0.07934045047
2651,0.07785431296
2650,0.07862648368
2649,0.07882039249
2648,0.07824459672
2647,0.07847201079
2646,0.0787987262
2645,0.08088137209
2644,0.0790463686
2643,0.07899022847
2642,0.07875171304
2641,0.07858317345
2640,0.07855994254
2639,0.0791637376
2638,0.07847114652
2637,0.07882750034
2636,0.07799607515
2635,0.07755829394
2634,0.07783452421
2633,0.07958451658
2632,0.07647524774
2631,0.07271705568
2630,0.07911491394
2629,0.07814963162
2628,0.07748229057
2627,0.08005840331
2626,0.08062370867
2625,0.07926016301
2624,0.07876452804
2623,0.07928365469
2622,0.07817566395
2621,0.07548442483
2620,0.07784604281
2619,0.08035615832
2618,0.07475102693
2617,0.0792979151
2616,0.07917072624
2615,0.07903621346
2614,0.07731696963
2613,0.07986114174
2612,0.0796687901
2611,0.07887858897
2610,0.07877014577
2609,0.08039294928
2608,0.07942862064
2607,0.07930975407
2606,0.07909006625
2605,0.08096814156
2604,0.08027459681
2603,0.07848488539
2602,0.07808557898
2601,0.07955762744
2600,0.07995772362
2599,0.07903388888
2598,0.07849130034
2597,0.07612705231
2596,0.07606909424
2595,0.08191420138
2594,0.08018121123
2593,0.08114184439
2592,0.08089122921
2591,0.07905714214
2590,0.07809773088
2589,0.07905596495
2588,0.08096592128
2587,0.08130482584
2586,0.0799606815
2585,0.07572679967
2584,0.08032931387
2583,0.08135798573
2582,0.07986813784
2581,0.07993985713
2580,0.08104269207
2579,0.079684183
2578,0.08063417673
2577,0.08205319941
2576,0.08240114897
2575,0.08060092479
2574,0.08133160323
2573,0.08177637309
2572,0.08048313856
2571,0.08044762164
2570,0.07956147939
2569,0.0809385404
2568,0.08072903007
2567,0.08059154451
2566,0.07960886508
2565,0.08001691103
2564,0.07885058969
2563,0.07959990948
2562,0.07763984799
2561,0.08126305789
2560,0.08216944337
2559,0.08103845268
2558,0.08048226684
2557,0.08075603098
2556,0.08072928339
2555,0.0808397755
2554,0.08049640805
2553,0.08016757667
2552,0.07977923006
2551,0.08053597808
2550,0.08069318533
2549,0.08078748733
2548,0.08061504364
2547,0.08109529316
2546,0.08074337244
2545,0.08123528212
2544,0.08079746366
2543,0.08102469146
2542,0.08112043887
2541,0.08078477532
2540,0.08122547716
2539,0.08135265112
2538,0.0810995996
2537,0.08009133488
2536,0.08042858541
2535,0.08103065193
2534,0.08122132719
2533,0.08080937713
2532,0.08061510324
2531,0.08083222806
2530,0.08146707714
2529,0.08152850717
2528,0.0813112855
2527,0.08142370731
2526,0.08150224388
2525,0.08179399371
2524,0.08172084391
2523,0.0816950947
2522,0.08136338741
2521,0.08170631528
2520,0.0815461576
2519,0.08157048374
2518,0.08170946687
2517,0.0815718621
2516,0.08150468022
2515,0.08187203109
2514,0.0819004178
2513,0.08183109015
2512,0.08179233968
2511,0.08200217038
2510,0.08204482496
2509,0.08171453327
2508,0.08213144541
2507,0.08188259602
2506,0.08186274767
2505,0.08188588172
2504,0.08185040206
2503,0.08229757845
2502,0.08246155083
2501,0.08228643984
2500,0.08232839406
2499,0.08203028142
2498,0.08207383752
2497,0.08248706162
2496,0.08219593763
2495,0.08227114379
2494,0.08197897673
2493,0.08243253827
2492,0.08234210312
2491,0.08252002299
2490,0.08256328106
2489,0.08239088207
2488,0.08259289712
2487,0.08273359388
2486,0.08265577257
2485,0.08270099014
2484,0.08294115216
2483,0.08264481276
2482,0.08248777688
2481,0.08269084245
2480,0.08276058733
2479,0.0828248933
2478,0.08276985586
2477,0.08290378004
2476,0.08268060535
2475,0.0829231739
2474,0.08289656788
2473,0.08292711526
2472,0.08318537474
2471,0.08322879672
2470,0.08326535672
2469,0.08295760304
2468,0.08320785314
2467,0.08337841183
2466,0.08310884982
2465,0.08314342797
2464,0.08342932165
2463,0.08334507048
2462,0.08317979425
2461,0.08350712061
2460,0.0835698396
2459,0.08346749842
2458,0.08358214051
2457,0.08349651843
2456,0.08348023146
2455,0.08376979828
2454,0.0839574188
2453,0.0836545378
2452,0.08367195725
2451,0.08393169194
2450,0.08375623822
2449,0.08372324705
2448,0.08395782113
2447,0.08379378915
2446,0.08424346894
2445,0.0841217041
2444,0.0842236653
2443,0.08405466378
2442,0.08434294909
2441,0.08421769738
2440,0.08410888165
2439,0.08441603929
2438,0.08448713273
2437,0.08423002064
2436,0.08430579305
2435,0.08449801058
2434,0.0845502764
2433,0.08442874253
2432,0.08479326218
2431,0.0846144408
2430,0.08463139087
2429,0.0848358348
2428,0.08479338884
2427,0.08472599089
2426,0.08513575792
2425,0.08496812731
2424,0.08482755721
2423,0.08499895036
2422,0.08513068408
2421,0.08499151468
2420,0.08529315144
2419,0.08516460657
2418,0.08498673141
2417,0.08527194709
2416,0.08546411991
2415,0.08521093428
2414,0.0853420496
2413,0.08555351198
2412,0.08530122042
2411,0.0855840221
2410,0.08585951477
2409,0.08547411114
2408,0.08566296846
2407,0.0859644115
2406,0.08573076874
2405,0.08597570658
2404,0.0861228928
2403,0.08584073931
2402,0.08606497943
2401,0.08625068516
2400,0.08596396446
2399,0.08612643182
2398,0.08634708822
2397,0.08626113087
2396,0.08620237559
2395,0.08675725013
2394,0.08658699691
2393,0.08642373234
2392,0.08676537126
2391,0.08672776073
2390,0.08660371602
2389,0.08704859763
2388,0.08698711544
2387,0.08677495271
2386,0.08708804846
2385,0.08711730689
2384,0.08708747476
2383,0.08720555156
2382,0.08727801591
2381,0.08732789755
2380,0.08740769327
2379,0.08766409755
2378,0.0876532644
2377,0.08745100349
2376,0.087707147
2375,0.0878412053
2374,0.08774402738
2373,0.08788639307
2372,0.08816753328
2371,0.08798604459
2370,0.08809938282
2369,0.08824904263
2368,0.08833183348
2367,0.08830762655
2366,0.08846985549
2365,0.08855955303
2364,0.08856637031
2363,0.08856100589
2362,0.08895093948
2361,0.08890791982
2360,0.08879669011
2359,0.08904149383
2358,0.08938239515
2357,0.08914414048
2356,0.08916139603
2355,0.08940907568
2354,0.08932013065
2353,0.08936938643
2352,0.08976131678
2351,0.0897936523
2350,0.08965765685
2349,0.08977811784
2348,0.09006093442
2347,0.09015604854
2346,0.08998586237
2345,0.0901144743
2344,0.09044825286
2343,0.09039734304
2342,0.09038421512
2341,0.09072627127
2340,0.09056380391
2339,0.0906689465
2338,0.09101141989
2337,0.0911167413
2336,0.09095671028
2335,0.09103251994
2334,0.09127172083
2333,0.09130264074
2332,0.0913329199
2331,0.09134946764
2330,0.09163890034
2329,0.09179419279
2328,0.09169177711
2327,0.09190293401
2326,0.09225329012
2325,0.09191572666
2324,0.0920631811
2323,0.09254611284
2322,0.09228085726
2321,0.09241527319
2320,0.09269154072
2319,0.0927657634
2318,0.09290898591
2317,0.09281342477
2316,0.09315881133
2315,0.09341260046
2314,0.0931616649
2313,0.09331005812
2312,0.09380424023
2311,0.09369254857
2310,0.09376292676
2309,0.09391412884
2308,0.09401138127
2307,0.09420195967
2306,0.09417308867
2305,0.09440176189
2304,0.09457912296
2303,0.09480383247
2302,0.09472738951
2301,0.09484285861
2300,0.09505039454
2299,0.09506422281
2298,0.0951859653
2297,0.09528901428
2296,0.09556056559
2295,0.09550815076
2294,0.09550331533
2293,0.09569568187
2292,0.09616758674
2291,0.0961291492
2290,0.09615046531
2289,0.0966745764
2288,0.09648219496
2287,0.09641095251
2286,0.0965199843
2285,0.0968202576
2284,0.09721750766
2283,0.09742048383
2282,0.09720037878
2281,0.09745214134
2280,0.09759798646
2279,0.09776154906
2278,0.09800315648
2277,0.09756088257
2276,0.09812027216
2275,0.09836285561
2274,0.09817554057
2273,0.09831627458
2272,0.09897003323
2271,0.09898713976
2270,0.09901188314
2269,0.09892858565
2268,0.09943021834
2267,0.09938039631
2266,0.09957389534
2265,0.09954075515
2264,0.09977436066
2263,0.09973003715
2262,0.1000953764
2261,0.09992676228
2260,0.1002129987
2259,0.1007219926
2258,0.1011002883
2257,0.1009464711
2256,0.1005709469
2255,0.1009796187
2254,0.1014977172
2253,0.1014761031
2252,0.1013252884
2251,0.1015781686
2250,0.1018864512
2249,0.1018304527
2248,0.1020001695
2247,0.1022598669
2246,0.1024997234
2245,0.1029556915
2244,0.1028444394
2243,0.1030037925
2242,0.1030006111
2241,0.1032315567
2240,0.1035985425
2239,0.1036173999
2238,0.1036460251
2237,0.1036621258
2236,0.1042959541
2235,0.1044452041
2234,0.1045347005
2233,0.1046802104
2232,0.1047223434
2231,0.1052183136
2230,0.1052130088
2229,0.1051827297
2228,0.105459027
2227,0.1057455987
2226,0.1061684266
2225,0.1061897427
2224,0.1061254218
2223,0.1063728854
2222,0.1065143496
2221,0.1070732474
2220,0.1070738137
2219,0.1069587171
2218,0.1077312827
2217,0.1077366546
2216,0.1077557951
2215,0.1080996692
2214,0.1082554832
2213,0.1086255088
2212,0.108784534
2211,0.1090842932
2210,0.1090052351
2209,0.1091130748
2208,0.1092006788
2207,0.1094242558
2206,0.1100211591
2205,0.1102026552
2204,0.110264644
2203,0.1104165614
2202,0.1106356233
2201,0.1109276041
2200,0.1108755097
2199,0.1110580266
2198,0.111255534
2197,0.1115059331
2196,0.1117576882
2195,0.1119636521
2194,0.1120651662
2193,0.1121914089
2192,0.1123045012
2191,0.1126130447
2190,0.1130910739
2189,0.113365896
2188,0.1133026481
2187,0.1135000065
2186,0.1135184318
2185,0.1139697284
2184,0.1141886711
2183,0.1144526228
2182,0.1145566404
2181,0.1147285402
2180,0.1149677336
2179,0.1152978167
2178,0.1157494858
2177,0.1158937961
2176,0.1157619506
2175,0.1159830838
2174,0.1161893383
2173,0.1167777702
2172,0.1169611961
2171,0.1172179282
2170,0.1174727082
2169,0.1175519302
2168,0.1177048609
2167,0.118029356
2166,0.1183554158
2165,0.1185700148
2164,0.1189046204
2163,0.1187815517
2162,0.1190222055
2161,0.1194608882
2160,0.1197450906
2159,0.1199331507
2158,0.1203372031
2157,0.1203826293
2156,0.1205114797
2155,0.1208581105
2154,0.1210542172
2153,0.1214504465
2152,0.1217922494
2151,0.1218653098
2150,0.1218778193
2149,0.1224118322
2148,0.1227280498
2147,0.1229556799
2146,0.1232020557
2145,0.12331637
2144,0.1235648468
2143,0.1237783507
2142,0.1241817325
2141,0.1244502142
2140,0.1246605366
2139,0.125129059
2138,0.1252016127
2137,0.1255071461
2136,0.1256453842
2135,0.1259389818
2134,0.1264064312
2133,0.1266316324
2132,0.1267834455
2131,0.1270360649
2130,0.1272190958
2129,0.1274284571
2128,0.1278079748
2127,0.1280907989
2126,0.1283751428
2125,0.1286412627
2124,0.129145816
2123,0.1293593198
2122,0.1294386834
2121,0.129805997
2120,0.1302444637
2119,0.1304578185
2118,0.1307258457
2117,0.1310020834
2116,0.1312472522
2115,0.1315910667
2114,0.1318740696
2113,0.1322886944
2112,0.1325437874
2111,0.132963866
2110,0.1331701279
2109,0.1332606822
2108,0.1337535828
2107,0.1341151446
2106,0.1343726963
2105,0.1346810907
2104,0.1350286603
2103,0.135164097
2102,0.1355333477
2101,0.1360609829
2100,0.1362941116
2099,0.1366291195
2098,0.1369130313
2097,0.1372722387
2096,0.1376119852
2095,0.1378332525
2094,0.1383680403
2093,0.1385416836
2092,0.1388171017
2091,0.1393042505
2090,0.1395405978
2089,0.1398963332
2088,0.1401899457
2087,0.1408017427
2086,0.1410755515
2085,0.1412340403
2084,0.1414359063
2083,0.1420075744
2082,0.1423079669
2081,0.1427263469
2080,0.1429902166
2079,0.1435281485
2078,0.143835932
2077,0.1441017091
2076,0.1445197612
2075,0.1448769271
2074,0.1451957971
2073,0.1455976814
2072,0.1459019035
2071,0.1462797523
2070,0.1466080695
2069,0.1471380144
2068,0.1474361718
2067,0.1478583217
2066,0.1481627822
2065,0.1485207826
2064,0.1489560902
2063,0.1492599547
2062,0.14967978
2061,0.1500193924
2060,0.1503207982
2059,0.1508174241
2058,0.151166752
2057,0.151604116
2056,0.1519231498
2055,0.1524266005
2054,0.1526288539
2053,0.1530743539
2052,0.1535389572
2051,0.1538434923
2050,0.1544471979
2049,0.1546696126
2048,0.1551662385
2047,0.1554189622
2046,0.1557774693
2045,0.1563600898
2044,0.1567444354
2043,0.1569572538
2042,0.1574785858
2041,0.1579585969
2040,0.1581095606
2039,0.1587236375
2038,0.1588779241
2037,0.1594246328
2036,0.1597729623
2035,0.1602148414
2034,0.1606689543
2033,0.1609833241
2032,0.1615343839
2031,0.1619949788
2030,0.1622185707
2029,0.1625866443
2028,0.1630478054
2027,0.1633348316
2026,0.1638961732
2025,0.164181754
2024,0.1646085978
2023,0.1650237441
2022,0.1653915197
2021,0.1657634377
2020,0.1662474424
2019,0.1667180061
2018,0.1669583917
2017,0.1675321609
2016,0.1679362059
2015,0.1683478057
2014,0.1685372144
2013,0.1689193994
2012,0.1693343371
2011,0.1698196232
2010,0.1702144295
2009,0.1706120819
2008,0.1709885746
2007,0.1714228541
2006,0.1717960536
2005,0.1721139401
2004,0.1725677997
2003,0.1729865372
2002,0.1734686345
2001,0.1736886054
2000,0.1741348803
1999,0.1746304333
1998,0.1749095768
1997,0.1753481179
1996,0.1756936312
1995,0.1762165278
1994,0.1764692515
1993,0.1769039631
1992,0.1772485673
1991,0.1777025312
1990,0.1780434102
1989,0.1783470809
1988,0.1787149459
1987,0.1791344583
1986,0.1794281453
1985,0.1798590422
1984,0.1802895069
1983,0.1805016994
1982,0.1809509844
1981,0.1814194918
1980,0.1817091256
1979,0.1822401583
1978,0.1824441999
1977,0.1827659458
1976,0.1831066459
1975,0.1835902333
1974,0.1838968694
1973,0.1841730922
1972,0.1845894903
1971,0.1849497259
1970,0.1852997094
1969,0.1857030541
1968,0.1859165579
1967,0.1863096207
1966,0.1866991371
1965,0.1871477216
1964,0.1875152588
1963,0.1877984703
1962,0.1880954653
1961,0.1885733455
1960,0.1887486428
1959,0.189099431
1958,0.1894381195
1957,0.1896993816
1956,0.190101102
1955,0.1904933155
1954,0.1908573657
1953,0.1911754459
1952,0.1915909648
1951,0.1919077933
1950,0.1922503412
1949,0.1925618947
1948,0.1929546893
1947,0.1931616217
1946,0.1935023218
1945,0.1939901114
1944,0.1942539215
1943,0.1946053803
1942,0.194960475
1941,0.1952416748
1940,0.1956926733
1939,0.1961036325
1938,0.1964021027
1937,0.1968672127
1936,0.1971460581
1935,0.1973715127
1934,0.1978675872
1933,0.1981825531
1932,0.1984107047
1931,0.1988043934
1930,0.1991203725
1929,0.1997154355
1928,0.2000156194
1927,0.200393647
1926,0.2006486952
1925,0.2009119391
1924,0.2014104724
1923,0.2017205507
1922,0.2016452998
1921,0.2021838576
1920,0.203129366
1919,0.2034581751
1918,0.2034318298
1917,0.2037796229
1916,0.2042317837
1915,0.2045384645
1914,0.2052086741
1913,0.205424279
1912,0.2056051791
1911,0.2061164975
1910,0.2065790147
1909,0.2068220079
1908,0.206850633
1907,0.207190454
1906,0.2083310485
1905,0.2084718794
1904,0.2085300684
1903,0.2089214623
1902,0.209369868
1901,0.2093951106
1900,0.2101463974
1899,0.2106078416
1898,0.2107201517
1897,0.2110398263
1896,0.2114008665
1895,0.211608693
1894,0.2120007426
1893,0.2124757767
1892,0.2125397474
1891,0.2129474133
1890,0.2134805173
1889,0.2138642371
1888,0.2140159458
1887,0.2143664211
1886,0.2146617472
1885,0.2149591148
1884,0.2154774815
1883,0.2157459259
1882,0.2158654332
1881,0.2162610143
1880,0.2166349739
1879,0.2167540938
1878,0.2170254886
1877,0.2174510807
1876,0.2176992148
1875,0.2177307457
1874,0.2180510461
1873,0.2186750472
1872,0.218818754
1871,0.2191519141
1870,0.2195867598
1869,0.2193785757
1868,0.2202063948
1867,0.2205458134
1866,0.2202468067
1865,0.2205581218
1864,0.2208731025
1863,0.221076414
1862,0.2209700197
1861,0.2212020159
1860,0.2217904925
1859,0.2219261825
1858,0.2219628543
1857,0.2222817689
1856,0.2225304991
1855,0.2223048657
1854,0.2228208929
1853,0.2232242525
1852,0.2230411172
1851,0.2229581922
1850,0.223095119
1849,0.2231037319
1848,0.2237785459
1847,0.2242020965
1846,0.2239493132
1845,0.2237087786
1844,0.2237159759
1843,0.2237124145
1842,0.2241650075
1841,0.224282518
1840,0.2243765444
1839,0.2242755741
1838,0.2241678238
1837,0.2244196385
1836,0.2245075852
1835,0.2246189415
1834,0.2243756801
1833,0.224294588
1832,0.22423397
1831,0.2243327647
1830,0.2243614048
1829,0.2245104909
1828,0.224384442
1827,0.2242238224
1826,0.2243358493
1825,0.2240927964
1824,0.2239548266
1823,0.2239281535
1822,0.2239222676
1821,0.2240320891
1820,0.2239754647
1819,0.2235330343
1818,0.2235150933
1817,0.2233369648
1816,0.2233271748
1815,0.2232721597
1814,0.2229237705
1813,0.2227890193
1812,0.2227722853
1811,0.2226173133
1810,0.2224452943
1809,0.22224617
1808,0.2220268697
1807,0.2219110727
1806,0.221783638
1805,0.2216007262
1804,0.2212728858
1803,0.2210359424
1802,0.2209323943
1801,0.2208004892
1800,0.2205530405
1799,0.220203042
1798,0.2200154811
1797,0.2198206931
1796,0.2196347862
1795,0.2193655223
1794,0.219118163
1793,0.2188812792
1792,0.2186220735
1791,0.21836178
1790,0.2180528343
1789,0.2177933604
1788,0.217559576
1787,0.2173440754
1786,0.2170249373
1785,0.2167202681
1784,0.2164615095
1783,0.2161312997
1782,0.2159116119
1781,0.2156400084
1780,0.2152597308
1779,0.2150339484
1778,0.2146828026
1777,0.2144493759
1776,0.2142195851
1775,0.2138734758
1774,0.213553533
1773,0.2132022232
1772,0.2129463106
1771,0.2126395553
1770,0.2121966928
1769,0.2119887322
1768,0.2116820961
1767,0.2114719301
1766,0.2110501677
1765,0.2107979953
1764,0.2104770392
1763,0.2100832462
1762,0.2099010795
1761,0.2094645798
1760,0.2092077881
1759,0.2089150548
1758,0.2085928023
1757,0.2083022743
1756,0.2079260349
1755,0.2076473832
1754,0.2072819322
1753,0.2070694268
1752,0.2066814899
1751,0.206346482
1750,0.2059957683
1749,0.205597043
1748,0.2053825259
1747,0.2050920576
1746,0.2046869099
1745,0.2044511139
1744,0.2041251957
1743,0.2036854774
1742,0.2033780813
1741,0.2030838728
1740,0.2027223259
1739,0.2023899406
1738,0.2020475119
1737,0.2017809898
1736,0.2014338523
1735,0.2011214495
1734,0.2007288188
1733,0.2002848089
1732,0.2000617385
1731,0.1997608691
1730,0.1993418485
1729,0.1990451217
1728,0.1985933781
1727,0.1982662678
1726,0.1980309933
1725,0.197583735
1724,0.1972404718
1723,0.1969016641
1722,0.1965315789
1721,0.196220383
1720,0.1958291829
1719,0.1953878701
1718,0.1949311495
1717,0.1946865469
1716,0.1943687201
1715,0.1939808428
1714,0.193487972
1713,0.1931717098
1712,0.1928207725
1711,0.1923911422
1710,0.1920370907
1709,0.1915985644
1708,0.19123137
1707,0.1908887029
1706,0.1904821247
1705,0.1900595576
1704,0.1896400154
1703,0.1891964972
1702,0.1888310462
1701,0.188482523
1700,0.1881251335
1699,0.1876871437
1698,0.1872595251
1697,0.1868085265
1696,0.1864904165
1695,0.1860273033
1694,0.1855911613
1693,0.1851855367
1692,0.1847913563
1691,0.1844055206
1690,0.1840337962
1689,0.1835591793
1688,0.1831051111
1687,0.1827701777
1686,0.1823288053
1685,0.1818762124
1684,0.1815121472
1683,0.1810597628
1682,0.1806460023
1681,0.1802952737
1680,0.1799399257
1679,0.1794200838
1678,0.1790321022
1677,0.1785678118
1676,0.1782165021
1675,0.1778133363
1674,0.1773776561
1673,0.1769863963
1672,0.1766499281
1671,0.1762772053
1670,0.1758784801
1669,0.1755171865
1668,0.17500256
1667,0.1746890694
1666,0.174274087
1665,0.1739198864
1664,0.1734781265
1663,0.172991246
1662,0.1726221442
1661,0.1722182482
1660,0.1719116867
1659,0.1714780629
1658,0.1710668355
1657,0.170628801
1656,0.1702298671
1655,0.1698598564
1654,0.1695036888
1653,0.1690787375
1652,0.1686558723
1651,0.1683423072
1650,0.1678845733
1649,0.1674190313
1648,0.1670619994
1647,0.1666771173
1646,0.166270718
1645,0.1659356505
1644,0.1655746549
1643,0.1651138812
1642,0.1647806913
1641,0.1643916667
1640,0.1639834642
1639,0.1635720581
1638,0.1631813198
1637,0.1628161222
1636,0.1624244452
1635,0.1620849371
1634,0.1617334038
1633,0.1612672657
1632,0.16089423
1631,0.1604620218
1630,0.1601539105
1629,0.1598302275
1628,0.1594808847
1627,0.15903157
1626,0.1586783081
1625,0.1584066451
1624,0.1579777747
1623,0.1575346589
1622,0.1572373062
1621,0.1568922698
1620,0.1565680057
1619,0.1561571062
1618,0.1558219641
1617,0.155494377
1616,0.1551324576
1615,0.1548153758
1614,0.1544454992
1613,0.1540755183
1612,0.1538041234
1611,0.1535233706
1610,0.1531781703
1609,0.1527515203
1608,0.1525290906
1607,0.1522115916
1606,0.1518910974
1605,0.1515117139
1604,0.1512864828
1603,0.1509411186
1602,0.1506107897
1601,0.1503837407
1600,0.1500887573
1599,0.1498263329
1598,0.1494818628
1597,0.1491915882
1596,0.1489534378
1595,0.1487223804
1594,0.1484018564
1593,0.1481721103
1592,0.1478904188
1591,0.1476282477
1590,0.147485286
1589,0.1472400725
1588,0.1469260454
1587,0.1465856582
1586,0.1464323699
1585,0.1462206244
1584,0.1460364163
1583,0.1457571536
1582,0.1455342025
1581,0.1453357041
1580,0.1451317221
1579,0.1449460238
1578,0.1446712911
1577,0.144473806
1576,0.1442449391
1575,0.1441049129
1574,0.1438924372
1573,0.1436832547
1572,0.1434745789
1571,0.1432064623
1570,0.143078655
1569,0.142946288
1568,0.1427406967
1567,0.1425418854
1566,0.1424683481
1565,0.14221479
1564,0.1420712173
1563,0.1418420076
1562,0.1417108625
1561,0.1415523738
1560,0.1413951218
1559,0.1412852257
1558,0.1410852522
1557,0.1408914626
1556,0.1407476515
1555,0.1405915171
1554,0.1404685527
1553,0.1403598934
1552,0.1401744634
1551,0.1399838328
1550,0.139904052
1549,0.1397472471
1548,0.139672339
1547,0.1395132989
1546,0.1392923445
1545,0.1392392963
1544,0.1390601248
1543,0.1390099674
1542,0.1388297826
1541,0.1386897564
1540,0.1386246681
1539,0.1384705454
1538,0.1383985877
1537,0.138264671
1536,0.1382007897
1535,0.1380628198
1534,0.1380265355
1533,0.1379306167
1532,0.1378019303
1531,0.1375944912
1530,0.1375458539
1529,0.1374661326
1528,0.1373659223
1527,0.1372808367
1526,0.1371667534
1525,0.1370342821
1524,0.1369574666
1523,0.1368898302
1522,0.1367961913
1521,0.136754334
1520,0.136581257
1519,0.1365507245
1518,0.1365001053
1517,0.1363691539
1516,0.1362909973
1515,0.1361981779
1514,0.1361317784
1513,0.1360755712
1512,0.1360051036
1511,0.1359319985
1510,0.1358347684
1509,0.1357862949
1508,0.1357734501
1507,0.1356425732
1506,0.1355879158
1505,0.1354691833
1504,0.1354278177
1503,0.1354115158
1502,0.135336563
1501,0.135238722
1500,0.1351198852
1499,0.1351279765
1498,0.1351022869
1497,0.1350634247
1496,0.1349938065
1495,0.1348659545
1494,0.1348788738
1493,0.1348245293
1492,0.1347855181
1491,0.1346568465
1490,0.1346647143
1489,0.1345734447
1488,0.1345973313
1487,0.1345304698
1486,0.1345104575
1485,0.134357214
1484,0.1343767941
1483,0.1343601793
1482,0.1342583299
1481,0.1342606544
1480,0.1341577321
1479,0.1341623813
1478,0.1341132075
1477,0.1340588927
1476,0.1340412349
1475,0.1339670718
1474,0.1339081228
1473,0.1339039654
1472,0.13389121
1471,0.1338413656
1470,0.1337982416
1469,0.1337855309
1468,0.1337410808
1467,0.1337270886
1466,0.1336591244
1465,0.133652404
1464,0.1335690916
1463,0.1335887313
1462,0.1335510612
1461,0.1334850639
1460,0.1334587634
1459,0.1334246844
1458,0.1333911121
1457,0.1333917081
1456,0.1333162338
1455,0.1333452314
1454,0.1332695484
1453,0.1331939399
1452,0.1331851482
1451,0.1331765205
1450,0.1331797242
1449,0.1331538707
1448,0.133147195
1447,0.1330855042
1446,0.1330145001
1445,0.1330155581
1444,0.1329878122
1443,0.1330053657
1442,0.1329654157
1441,0.1328725368
1440,0.1328906417
1439,0.1327792257
1438,0.1328575611
1437,0.1328668445
1436,0.132833004
1435,0.1327266544
1434,0.1326912344
1433,0.132719487
1432,0.1327031851
1431,0.1326925009
1430,0.1325846165
1429,0.1325788498
1428,0.132625252
1427,0.132576853
1426,0.1325422078
1425,0.1324899197
1424,0.1324589401
1423,0.1325004846
1422,0.1324431002
1421,0.1324070096
1420,0.1323868185
1419,0.1323683411
1418,0.1323515326
1417,0.1323577464
1416,0.1322574914
1415,0.1323058903
1414,0.1321991533
1413,0.1322421432
1412,0.1322016418
1411,0.1321174502
1410,0.132116124
1409,0.1321564466
1408,0.1320919842
1407,0.1321057379
1406,0.1321033835
1405,0.1320704669
1404,0.1320625395
1403,0.1319752634
1402,0.1319417208
1401,0.1320676208
1400,0.1320979148
1399,0.1319485605
1398,0.1317780614
1397,0.1318556517
1396,0.1319791824
1395,0.1319372356
1394,0.1318078935
1393,0.1318092346
1392,0.1318446398
1391,0.1317491233
1390,0.1316402853
1389,0.1317055821
1388,0.1316428035
1387,0.1316215247
1386,0.1316639483
1385,0.1315964013
1384,0.131581232
1383,0.1316923052
1382,0.1316761076
1381,0.1316329241
1380,0.1315615922
1379,0.1314976811
1378,0.1315048635
1377,0.1314870268
1376,0.1314474046
1375,0.1313780695
1374,0.1313543171
1373,0.1311990321
1372,0.1312713474
1371,0.1312512159
1370,0.1312250197
1369,0.1311446875
1368,0.1312339157
1367,0.13119407
1366,0.1310768127
1365,0.1310926378
1364,0.1311173439
1363,0.1310303956
1362,0.1311952174
1361,0.1311558932
1360,0.131053254
1359,0.1310235709
1358,0.1310406178
1357,0.130950883
1356,0.130943045
1355,0.1309441626
1354,0.1309620142
1353,0.1309880167
1352,0.1309124231
1351,0.1309446841
1350,0.1309328973
1349,0.1308940202
1348,0.1308806837
1347,0.1308760941
1346,0.1308619678
1345,0.1308705658
1344,0.1308580041
1343,0.1308271587
1342,0.1308905184
1341,0.1308183074
1340,0.1308600456
1339,0.13082394
1338,0.1308607012
1337,0.1308474839
1336,0.1308673918
1335,0.1308529675
1334,0.1308834851
1333,0.1308512241
1332,0.1308936924
1331,0.130884707
1330,0.1309209615
1329,0.1308975518
1328,0.1308948845
1327,0.1309328973
1326,0.130965054
1325,0.1309370548
1324,0.1309400648
1323,0.1309390217
1322,0.1309396476
1321,0.1309854537
1320,0.1310294867
1319,0.1310187429
1318,0.1310357153
1317,0.1310465038
1316,0.1311119944
1315,0.1310849041
1314,0.1311141998
1313,0.131168887
1312,0.1311445534
1311,0.1312071979
1310,0.1312202215
1309,0.13127096
1308,0.1312360764
1307,0.1313229352
1306,0.1314022839
1305,0.1314148605
1304,0.1314516366
1303,0.13143906
1302,0.131465897
1301,0.1315845847
1300,0.1315764934
1299,0.1316593885
1298,0.1316577047
1297,0.131723538
1296,0.1317532659
1295,0.131866768
1294,0.1318698972
1293,0.1318688393
1292,0.1319831461
1291,0.131996274
1290,0.1321077049
1289,0.1321786195
1288,0.1321285814
1287,0.1322736591
1286,0.1323246062
1285,0.1323880851
1284,0.1324679255
1283,0.1324945241
1282,0.1325978935
1281,0.1326902509
1280,0.1327531785
1279,0.1328228116
1278,0.1328794956
1277,0.1329475939
1276,0.133032009
1275,0.1331133991
1274,0.1332518458
1273,0.133299306
1272,0.1334441602
1271,0.1335101128
1270,0.1335333884
1269,0.1337391436
1268,0.1337632984
1267,0.133863762
1266,0.1339934319
1265,0.1340651959
1264,0.1342519075
1263,0.1343216002
1262,0.1344035715
1261,0.1345043629
1260,0.1346644014
1259,0.1347639114
1258,0.1349181831
1257,0.1350191683
1256,0.1350865662
1255,0.1352781057
1254,0.1354255229
1253,0.1355153769
1252,0.1356663406
1251,0.1357973367
1250,0.1359509379
1249,0.1360734552
1248,0.1362187564
1247,0.1363873333
1246,0.1365066022
1245,0.1366666704
1244,0.1368289888
1243,0.1369538009
1242,0.1371171623
1241,0.1372808367
1240,0.1374467015
1239,0.1375942528
1238,0.1377740949
1237,0.1379156411
1236,0.1380736977
1235,0.138184607
1234,0.1384447217
1233,0.1386501789
1232,0.1387789994
1231,0.1389295757
1230,0.1391212046
1229,0.1393559575
1228,0.1395467371
1227,0.1397510022
1226,0.1398870796
1225,0.1400731653
1224,0.1402766109
1223,0.1404968053
1222,0.1407181174
1221,0.1408820152
1220,0.1411444694
1219,0.1412903816
1218,0.1415428668
1217,0.1418084949
1216,0.142014429
1215,0.1422273666
1214,0.1424567401
1213,0.1427060664
1212,0.1429482251
1211,0.143184334
1210,0.1434356868
1209,0.14362593
1208,0.1439440995
1207,0.1442188472
1206,0.1444342285
1205,0.1447173506
1204,0.1449885666
1203,0.1451863647
1202,0.1455111802
1201,0.145818606
1200,0.146070987
1199,0.1461382061
1198,0.1464197785
1197,0.1466798782
1196,0.1469604373
1195,0.1472877413
1194,0.1476022452
1193,0.1479172707
1192,0.1481696367
1191,0.1484393477
1190,0.148744911
1189,0.1490799934
1188,0.1494064182
1187,0.1497043073
1186,0.1499673575
1185,0.1502860039
1184,0.1506172717
1183,0.1509383619
1182,0.151272431
1181,0.1515529156
1180,0.1518600285
1179,0.1521968544
1178,0.1525068134
1177,0.1528577209
1176,0.1531825215
1175,0.1534661204
1174,0.153785944
1173,0.1541440189
1172,0.154449746
1171,0.1547523737
1170,0.1551169902
1169,0.1554020792
1168,0.1557466686
1167,0.1560661346
1166,0.1563709676
1165,0.1566684246
1164,0.1570683569
1163,0.1573914438
1162,0.1577008516
1161,0.1580349356
1160,0.1583209485
1159,0.15866898
1158,0.1590442955
1157,0.1593872309
1156,0.1597038656
1155,0.1600347161
1154,0.1603780985
1153,0.1607560813
1152,0.1610946059
1151,0.1614690125
1150,0.1618868113
1149,0.1622008979
1148,0.16258654
1147,0.1630091369
1146,0.1633988619
1145,0.1637731045
1144,0.164163515
1143,0.1646001637
1142,0.1650274247
1141,0.1654678285
1140,0.1658824682
1139,0.1663483828
1138,0.1668602973
1137,0.1672673821
1136,0.1677402258
1135,0.1682539731
1134,0.1687438339
1133,0.1692832261
1132,0.1697778702
1131,0.1702597588
1130,0.1708031446
1129,0.1713138521
1128,0.1718594581
1127,0.1723796129
1126,0.1729325354
1125,0.1735157222
1124,0.1740355045
1123,0.1746153831
1122,0.1751932055
1121,0.1757226437
1120,0.1763225347
1119,0.1768829525
1118,0.1774257123
1117,0.1779937595
1116,0.1785710603
1115,0.1790692061
1114,0.1796647757
1113,0.1802546531
1112,0.1808213443
1111,0.1813136041
1110,0.181881249
1109,0.1824188232
1108,0.1829113513
1107,0.1834750175
1106,0.1839859784
1105,0.1844511926
1104,0.1849299073
1103,0.1854048669
1102,0.1858714819
1101,0.1863387972
1100,0.1866974235
1099,0.1871585101
1098,0.1875739545
1097,0.187929526
1096,0.188242346
1095,0.18862921
1094,0.1889875382
1093,0.1893154979
1092,0.1896146238
1091,0.1898874193
1090,0.1901437789
1089,0.1903640479
1088,0.1906759888
1087,0.1908821464
1086,0.1911144555
1085,0.1912702024
1084,0.1915015578
1083,0.1916809827
1082,0.1918994635
1081,0.1920956224
1080,0.1922175735
1079,0.1923849285
1078,0.192593202
1077,0.1927673072
1076,0.1929714382
1075,0.1930712759
1074,0.1932798028
1073,0.1935081035
1072,0.1936778873
1071,0.1939227879
1070,0.1941022873
1069,0.1942904443
1068,0.1945041716
1067,0.1947768033
1066,0.1950513273
1065,0.1952687949
1064,0.1954915971
1063,0.195784241
1062,0.1961403489
1061,0.1964462101
1060,0.1967603862
1059,0.1970389187
1058,0.1973319203
1057,0.1977064013
1056,0.1980755627
1055,0.1984021217
1054,0.1987001151
1053,0.1991158575
1052,0.1994588971
1051,0.1999275386
1050,0.2002827078
1049,0.2006380409
1048,0.2009727806
1047,0.2013899237
1046,0.2017394155
1045,0.2021514773
1044,0.2024559975
1043,0.2028148025
1042,0.2031942904
1041,0.2035662085
1040,0.2038408369
1039,0.2041232139
1038,0.2044238001
1037,0.2047220767
1036,0.2050533295
1035,0.2052657306
1034,0.2054243535
1033,0.2056348175
1032,0.2058255076
1031,0.2060214728
1030,0.2061638534
1029,0.2062891275
1028,0.206320256
1027,0.2064577043
1026,0.2065496147
1025,0.2066482902
1024,0.2065770924
1023,0.2065879703
1022,0.2065989673
1021,0.2065633088
1020,0.2065315694
1019,0.2064623237
1018,0.206329301
1017,0.2062663138
1016,0.2061150372
1015,0.2060198188
1014,0.2058505416
1013,0.2056667358
1012,0.2055280954
1011,0.205416292
1010,0.2051803619
1009,0.2049668878
1008,0.2047320753
1007,0.2045312822
1006,0.2043292373
1005,0.2041454166
1004,0.2038924098
1003,0.2036384344
1002,0.2034074813
1001,0.2030974627
1000,0.2028130293
999,0.2026270926
998,0.2023321539
997,0.2019904703
996,0.2016951889
995,0.2013980746
994,0.201063633
993,0.2007563114
992,0.200323686
991,0.2000289112
990,0.1996704638
989,0.1993177533
988,0.1990117133
987,0.1986848712
986,0.1983260065
985,0.1978842765
984,0.1975856125
983,0.1971569806
982,0.1968324184
981,0.196399495
980,0.1960915923
979,0.1957258582
978,0.1954135299
977,0.1949481517
976,0.1946485639
975,0.1943606585
974,0.194072783
973,0.193704173
972,0.19337219
971,0.1930425316
970,0.1928369105
969,0.1924289465
968,0.1920837313
967,0.1918343157
966,0.1916229874
965,0.1912965477
964,0.1910307854
963,0.1907531768
962,0.1904802322
961,0.1901787817
960,0.1898772269
959,0.1896253526
958,0.1893742234
957,0.189059943
956,0.1887719184
955,0.1884666234
954,0.1881297678
953,0.1878307462
952,0.1874496937
951,0.1871617734
950,0.1868950725
949,0.1864137501
948,0.1861073226
947,0.1858220398
946,0.185479328
945,0.1851701885
944,0.1847740859
943,0.1843328625
942,0.1839377433
941,0.1835151762
940,0.1833368838
939,0.1829270869
938,0.1824778169
937,0.1820452511
936,0.1817387789
935,0.1813853234
934,0.181003809
933,0.1805435568
932,0.1802224666
931,0.1798926145
930,0.1793670654
929,0.1790852398
928,0.1787255257
927,0.1782834232
926,0.1778787971
925,0.1774869859
924,0.1771293283
923,0.1766499728
922,0.1764062643
921,0.1758870184
920,0.1755973846
919,0.175130859
918,0.1746966094
917,0.1743801236
916,0.1737951934
915,0.1734793633
914,0.173203215
913,0.1726449877
912,0.1722979695
911,0.171982646
910,0.1716268808
909,0.1712598652
908,0.1707570404
907,0.1706132442
906,0.1700655967
905,0.169841826
904,0.1693110615
903,0.1690679938
902,0.1686583608
901,0.1683251858
900,0.167934984
899,0.1667577922
898,0.1650240868
897,0.1664400548
896,0.1687793285
895,0.1691001356
894,0.1616954207
893,0.1581151485
892,0.1648221165
891,0.1678849161
890,0.1627492905
889,0.1674048305
888,0.1645289958
887,0.1683828235
886,0.1722283065
885,0.1666129827
884,0.1672881097
883,0.1659553051
882,0.1670131385
881,0.1632343233
880,0.1645226181
879,0.1628808677
878,0.1613089591
877,0.1654972285
876,0.163279444
875,0.1610126048
874,0.1646244824
873,0.1640882194
872,0.1617167145
871,0.1643841863
870,0.1599820256
869,0.1598684937
868,0.162276268
867,0.1604299247
866,0.16112037
865,0.1619138718
864,0.1602621377
863,0.1611758173
862,0.1615142971
861,0.1614817381
860,0.1615788788
859,0.1601014733
858,0.1606488675
857,0.162074253
856,0.1615498513
855,0.1592723876
854,0.1601128429
853,0.1607301831
852,0.1599562168
851,0.1607166231
850,0.1603746563
849,0.1593827158
848,0.1602277607
847,0.1601094007
846,0.1596856862
845,0.1594587564
844,0.1594446748
843,0.1597418487
842,0.1594812572
841,0.1595306545
840,0.1595014334
839,0.1587335169
838,0.1598107368
837,0.1593008935
836,0.1590687484
835,0.1590213329
834,0.158831954
833,0.1592494249
832,0.1595834792
831,0.1587362438
830,0.1591925323
829,0.1592924893
828,0.1598786563
827,0.159283638
826,0.1599628776
825,0.1598774195
824,0.1597129852
823,0.1596390605
822,0.1599894017
821,0.1598904431
820,0.1606907248
819,0.1599826217
818,0.1607180387
817,0.1607512534
816,0.1609765291
815,0.1613593549
814,0.1612145752
813,0.1609396338
812,0.1613261402
811,0.1621374637
810,0.1621932983
809,0.1623996645
808,0.1625883877
807,0.162961036
806,0.1630544364
805,0.1632008106
804,0.1631291956
803,0.1632704288
802,0.1635620296
801,0.1640609205
800,0.1640308946
799,0.1642121673
798,0.1644583493
797,0.1653584838
796,0.1649815142
795,0.1654935181
794,0.1656877697
793,0.1657165736
792,0.1661958992
791,0.1665610969
790,0.1668190211
789,0.1668284088
788,0.1669996828
787,0.167473346
786,0.167342335
785,0.1676523983
784,0.1681047827
783,0.168187052
782,0.1685085595
781,0.1689387262
780,0.1694483608
779,0.1689570248
778,0.1694374979
777,0.1699181944
776,0.1701281667
775,0.1704519689
774,0.1707850844
773,0.1712756902
772,0.1716602147
771,0.1722363085
770,0.1724034101
769,0.1727871597
768,0.1730471104
767,0.1738111824
766,0.1737752259
765,0.1746945977
764,0.1754027009
763,0.1760574728
762,0.1758422703
761,0.1765441447
760,0.1775060743
759,0.1778846085
758,0.1783628911
757,0.1789090633
756,0.1794661433
755,0.1800870895
754,0.1805146486
753,0.1808995157
752,0.1813467294
751,0.1815591753
750,0.1822797656
749,0.1826781482
748,0.1828769296
747,0.1833340824
746,0.1836366504
745,0.183899954
744,0.1840483099
743,0.1843468249
742,0.1847085208
741,0.1848274469
740,0.185334295
739,0.1852651685
738,0.1850648671
737,0.1856526434
736,0.1857427061
735,0.1857801974
734,0.1855781823
733,0.1855587661
732,0.1860039085
731,0.1858867258
730,0.1858189106
729,0.1860843897
728,0.1859896034
727,0.1862395406
726,0.1864337921
725,0.1864675134
724,0.1866481751
723,0.1866554469
722,0.1867187619
721,0.186968714
720,0.1867811531
719,0.1871981025
718,0.1871975511
717,0.1873495877
716,0.1873485446
715,0.1878228486
714,0.1881328821
713,0.1881876439
712,0.1883532554
711,0.1887871027
710,0.1887777895
709,0.1891766936
708,0.1890421808
707,0.1892828345
706,0.1896437407
705,0.1894166619
704,0.1895206571
703,0.1897495985
702,0.189647302
701,0.1898298115
700,0.1896907687
699,0.1897165328
698,0.1897946298
697,0.1896008849
696,0.1893723011
695,0.1893779933
694,0.1892727017
693,0.1891277581
692,0.1890137792
691,0.188951537
690,0.1886706203
689,0.1885616332
688,0.188173756
687,0.188161701
686,0.1880474091
685,0.1878516078
684,0.1876085103
683,0.1874682307
682,0.1872537881
681,0.1870570779
680,0.1870116293
679,0.1868817359
678,0.1865533441
677,0.1864328682
676,0.1863253564
675,0.1861103028
674,0.1860263497
673,0.185797587
672,0.185537219
671,0.1853639632
670,0.1849954575
669,0.184987247
668,0.1847989559
667,0.1845741272
666,0.1843604743
665,0.184208259
664,0.184074685
663,0.1838001758
662,0.1837721914
661,0.1835872382
660,0.1835139245
659,0.1832734048
658,0.1831427962
657,0.1829921454
656,0.1829835027
655,0.1829301268
654,0.1827511638
653,0.1827148944
652,0.1825511158
651,0.1824242622
650,0.1823859364
649,0.1821591854
648,0.1819653511
647,0.1819763631
646,0.1817141622
645,0.1816058904
644,0.1814679503
643,0.181533888
642,0.1812390238
641,0.1809277385
640,0.1808176935
639,0.1808220595
638,0.180496484
637,0.1803726256
636,0.1803021282
635,0.1800870597
634,0.1801614761
633,0.1799251139
632,0.1796852946
631,0.1796262115
630,0.1796070337
629,0.179417491
628,0.1794573367
627,0.1792007536
626,0.1792892963
625,0.1791057587
624,0.178991884
623,0.1789530218
622,0.1788937747
621,0.1788409501
620,0.1786954105
619,0.178701669
618,0.1786979884
617,0.1787574142
616,0.1785897613
615,0.1788582504
614,0.1787811667
613,0.1787583828
612,0.17873393
611,0.1789407134
610,0.1790219843
609,0.1790391505
608,0.1792724729
607,0.1793022007
606,0.1795837879
605,0.1795556843
604,0.1799451411
603,0.1800631881
602,0.1803965569
601,0.1806216687
600,0.1807816327
599,0.1810969561
598,0.1814192533
597,0.1814829707
596,0.1818555892
595,0.1820044667
594,0.1823817939
593,0.1826594621
592,0.1828313321
591,0.1829181761
590,0.1830710471
589,0.1832824349
588,0.1834161729
587,0.1835141927
586,0.1837808043
585,0.1837960631
584,0.183852002
583,0.1839585453
582,0.1839354187
581,0.1841036379
580,0.1839777976
579,0.1844388396
578,0.1843218952
577,0.1845630705
576,0.1846062392
575,0.18496418
574,0.1851879507
573,0.1854112148
572,0.1857426316
571,0.1860822141
570,0.1866431534
569,0.1868514419
568,0.1873948872
567,0.1878501624
566,0.1884361356
565,0.1887499243
564,0.1892206818
563,0.1898473799
562,0.1901490688
561,0.1906948984
560,0.1911253184
559,0.19163993
558,0.1919966489
557,0.1921782941
556,0.1923484802
555,0.1926256716
554,0.1929115802
553,0.193065986
552,0.1929316074
551,0.1926430464
550,0.1926834285
549,0.1927859485
548,0.1925818622
547,0.1922044456
546,0.1920809448
545,0.1919516623
544,0.1919163316
543,0.1917050928
542,0.1917593926
541,0.1916312426
540,0.1917862445
539,0.1917482018
538,0.192056179
537,0.1923275739
536,0.1925492734
535,0.1929699033
534,0.1932299882
533,0.1935267299
532,0.1939274818
531,0.1945654601
530,0.1948953867
529,0.1952291429
528,0.195596531
527,0.1961193234
526,0.1964458376
525,0.1967729181
524,0.1973865181
523,0.1973251104
522,0.1975936443
521,0.1975010037
520,0.1978305131
519,0.1980572641
518,0.1979171038
517,0.1979230344
516,0.1981211007
515,0.1980747879
514,0.198114112
513,0.1981047988
512,0.1984689087
511,0.1986026615
510,0.1986831129
509,0.1988899112
508,0.1991477162
507,0.1992901117
506,0.1997159719
505,0.2001303881
504,0.2005473822
503,0.2009319514
502,0.2016604245
501,0.2019768208
500,0.2026014924
499,0.2032152116
498,0.203829661
497,0.2043750286
496,0.2048871815
495,0.2053460628
494,0.2057831436
493,0.2061950713
492,0.2063474059
491,0.20634453
490,0.2063357085
489,0.2061173767
488,0.2059554607
487,0.2057014853
486,0.2051470727
485,0.2048062682
484,0.2046441138
483,0.2045248151
482,0.2041347325
481,0.204010278
480,0.2039323151
479,0.2038662434
478,0.204025358
477,0.2042719275
476,0.2046355605
475,0.2050207108
474,0.2053316385
473,0.2060739845
472,0.2067130357
471,0.2072892338
470,0.2078285217
469,0.2083171606
468,0.2089193612
467,0.2092041373
466,0.2095062137
465,0.2091590166
464,0.2093984187
463,0.2090375125
462,0.2091208845
461,0.2084577382
460,0.2078245878
459,0.2076556981
458,0.2075400054
457,0.2071061581
456,0.2070132196
455,0.2070010453
454,0.2067746222
453,0.2069421262
452,0.2070554048
451,0.2073972225
450,0.2077408433
449,0.2082173824
448,0.208400473
447,0.2090107948
446,0.2094995826
445,0.2098163068
444,0.2104258388
443,0.210907951
442,0.2111513466
441,0.2117080986
440,0.21196419
439,0.2122163177
438,0.2123828679
437,0.2124399841
436,0.2127378881
435,0.2131442577
434,0.21304667
433,0.213706404
432,0.2136630863
431,0.2141512632
430,0.2141995877
429,0.2145456225
428,0.2154149115
427,0.2159064114
426,0.2159462124
425,0.2165881246
424,0.2171203047
423,0.2175367326
422,0.2184160501
421,0.2184013277
420,0.218929261
419,0.219353646
418,0.2189390808
417,0.218938604
416,0.2189894468
415,0.2192112058
414,0.2196454406
413,0.2197412103
412,0.2198518664
411,0.2200117409
410,0.2205507606
409,0.2213415802
408,0.221846655
407,0.222308889
406,0.2228291482
405,0.2235665917
404,0.2242819965
403,0.2252881974
402,0.2254822701
401,0.2258328944
400,0.2267671078
399,0.2274427116
398,0.2277051806
397,0.2282644361
396,0.2280075401
395,0.2281978428
394,0.2285920829
393,0.2291325182
392,0.2291708738
391,0.2295014262
390,0.2298433632
389,0.2306220084
388,0.2306371629
387,0.231553629
386,0.2322420627
385,0.2323093265
384,0.2330562472
383,0.2339265645
382,0.2344374359
381,0.2353468835
380,0.2357096672
379,0.236792326
378,0.237762928
377,0.2385968119
376,0.2393495142
375,0.2399469763
374,0.2407227904
373,0.2418849468
372,0.2428622097
371,0.2436285615
370,0.2441002131
369,0.2447761446
368,0.2448207736
367,0.2458168417
366,0.2463149428
365,0.2472352684
364,0.2471543103
363,0.247458905
362,0.248184219
361,0.2491176724
360,0.2498739362
359,0.2507389486
358,0.2519594133
357,0.2530833185
356,0.2543422878
355,0.2552953959
354,0.2562716603
353,0.2574330568
352,0.2584170699
351,0.259596765
350,0.2604000568
349,0.2589474916
348,0.2599674165
347,0.2605899274
346,0.26145643
345,0.2629101872
344,0.2639636099
343,0.2645034492
342,0.2658853531
341,0.2662732601
340,0.267044276
339,0.2681608796
338,0.2697257996
337,0.2714344263
336,0.272729665
335,0.2740940452
334,0.2745314837
333,0.275772959
332,0.2776636183
331,0.2774899006
330,0.2789991796
329,0.279866159
328,0.2814795971
327,0.2826937735
326,0.2830022573
325,0.2854061723
324,0.2859957218
323,0.2884982824
322,0.290181607
321,0.2925808728
320,0.2937757075
319,0.2951096594
318,0.2971685231
317,0.2989333868
316,0.3002269268
315,0.3022602201
314,0.3044700325
313,0.3065883517
312,0.3080115914
311,0.3097618222
310,0.3122671545
309,0.3141396046
308,0.316304028
307,0.3192065656
306,0.3207558393
305,0.3241744936
304,0.3257465661
303,0.3285923898
302,0.3313948214
301,0.3330190778
300,0.3356093466
299,0.3376062214
298,0.3398885131
297,0.3424204588
296,0.3452887535
295,0.3477145135
294,0.3505489528
293,0.3537424505
292,0.3562535048
291,0.3585566282
290,0.3615563214
289,0.3637509048
288,0.3667379618
287,0.369333297
286,0.3720629811
285,0.3741722703
284,0.3767148554
283,0.3787478209
282,0.3817179501
281,0.3828421533
280,0.3851260841
279,0.3866015673
278,0.3880550265
277,0.3905793428
276,0.3911066353
275,0.3923104107
274,0.3933364451
273,0.3941607773
272,0.3942327201
271,0.3949819803
270,0.3948939145
269,0.3945808113
268,0.395033747
267,0.3942929208
266,0.3938126266
265,0.392968446
264,0.3926813602
263,0.3913387954
262,0.389968127
261,0.3883666098
260,0.387353152
259,0.3860194385
258,0.3845713437
257,0.3828369379
256,0.3812021911
255,0.3793903589
254,0.3774580657
253,0.3748696744
252,0.3722430766
251,0.3699812889
250,0.3672868609
249,0.3640793562
248,0.3607839346
247,0.3576921225
246,0.3540198505
245,0.350238651
244,0.3459847569
243,0.3414355814
242,0.338352114
241,0.3345965147
240,0.32991153
239,0.3269172013
238,0.3228757977
237,0.3202303946
236,0.3166951835
235,0.3140513301
234,0.3116396666
233,0.3087503612
232,0.3065926731
231,0.3049839437
230,0.3026717603
229,0.3017875254
228,0.2997534275
227,0.299421221
226,0.2989416718
225,0.3002418578
224,0.3024342358
223,0.3064118028
222,0.3113979995
221,0.3189297318
220,0.3292896748
219,0.3425599933
218,0.3579650223
217,0.375852555
216,0.3961751163
215,0.4188863635
214,0.4416480958
213,0.4660146832
212,0.4886754453
211,0.5104703903
210,0.5304701924
209,0.5465368629
208,0.5597522259
207,0.5685384274
206,0.576302588
205,0.5782217979
204,0.5773736835
203,0.5737097859
202,0.5660348535
201,0.5585004687
200,0.54818964
