Dodecane_KIT_Vac_20
Wavelength (nm),Abs
2655,0.07623965293
2654,0.07700657099
2653,0.07761867344
2652,0.07910379022
2651,0.07828296721
2650,0.07822053879
2649,0.07802844793
2648,0.07821437716
2647,0.07782898098
2646,0.07976514101
2645,0.07995084673
2644,0.07938616723
2643,0.07904519141
2642,0.07861047238
2641,0.07879286259
2640,0.07857172936
2639,0.07920818776
2638,0.07818458974
2637,0.07869818062
2636,0.07764281332
2635,0.07608695328
2634,0.07691244036
2633,0.0789314881
2632,0.07654443383
2631,0.07378271967
2630,0.07966564596
2629,0.07883764803
2628,0.07811436802
2627,0.07879956812
2626,0.08097397536
2625,0.07860150933
2624,0.07870789617
2623,0.07814876735
2622,0.07771104574
2621,0.07496692985
2620,0.07675305009
2619,0.07867627591
2618,0.07698645443
2617,0.0763053745
2616,0.07968741655
2615,0.07791808248
2614,0.07747139782
2613,0.07947477698
2612,0.07840028405
2611,0.07858037949
2610,0.07745988667
2609,0.07870454341
2608,0.079052113
2607,0.07836140692
2606,0.07783731073
2605,0.07677157968
2604,0.07835244387
2603,0.07739531994
2602,0.07629781216
2601,0.07841885835
2600,0.07909907401
2599,0.07816723734
2598,0.07867562771
2597,0.07599467784
2596,0.07273642719
2595,0.07635872811
2594,0.07843523473
2593,0.07995314896
2592,0.07978417724
2591,0.07859781384
2590,0.07703726739
2589,0.07707247138
2588,0.07886806875
2587,0.0810168907
2586,0.07880614698
2585,0.07597303391
2584,0.07632694393
2583,0.08086624742
2582,0.07854120433
2581,0.07835793495
2580,0.07990628481
2579,0.07907114923
2578,0.07927489281
2577,0.08078552037
2576,0.08101186901
2575,0.07951438427
2574,0.08079138398
2573,0.08115367591
2572,0.07958013564
2571,0.0792452842
2570,0.07873827219
2569,0.07919849455
2568,0.07926693559
2567,0.0797367692
2566,0.07954848558
2565,0.08027235419
2564,0.07757654786
2563,0.07794009894
2562,0.07662493736
2561,0.07963573188
2560,0.08104986697
2559,0.08028608561
2558,0.07988096029
2557,0.07959269732
2556,0.07990279794
2555,0.07989636064
2554,0.07946560532
2553,0.079137519
2552,0.07864571363
2551,0.07984729856
2550,0.08012168854
2549,0.08018479496
2548,0.07945824414
2547,0.08032131195
2546,0.08016122133
2545,0.08007617295
2544,0.0798182711
2543,0.0795417726
2542,0.08016452193
2541,0.08002475649
2540,0.08037208021
2539,0.08057206869
2538,0.08042868227
2537,0.07936488092
2536,0.07961747795
2535,0.08028172702
2534,0.07986042649
2533,0.07990062237
2532,0.07941798866
2531,0.07989524305
2530,0.08037410676
2529,0.08068476617
2528,0.08041787148
2527,0.08047070354
2526,0.08070752025
2525,0.08083821833
2524,0.08108627796
2523,0.08108153194
2522,0.08053704351
2521,0.08117124438
2520,0.08070225269
2519,0.08101499081
2518,0.08113607764
2517,0.0808506906
2516,0.08089712262
2515,0.08109255135
2514,0.08141303062
2513,0.08102291822
2512,0.08087083697
2511,0.08101190627
2510,0.08115486056
2509,0.08130975813
2508,0.08119361848
2507,0.08108387142
2506,0.08112696558
2505,0.08096507937
2504,0.08111856878
2503,0.08128029108
2502,0.08178836852
2501,0.08135320991
2500,0.08162802458
2499,0.08124061674
2498,0.08129411936
2497,0.08176193386
2496,0.08104175329
2495,0.08139105141
2494,0.081295304
2493,0.08169472218
2492,0.08172231168
2491,0.08180309087
2490,0.08187510073
2489,0.08165295422
2488,0.08175802976
2487,0.08191391826
2486,0.08191020042
2485,0.08207083493
2484,0.08221621066
2483,0.08207605779
2482,0.08189603686
2481,0.0820062682
2480,0.08189129084
2479,0.08201796561
2478,0.08214630187
2477,0.0824649632
2476,0.08214389533
2475,0.08210564405
2474,0.08207464963
2473,0.08208109438
2472,0.08283735812
2471,0.08243100345
2470,0.08256857842
2469,0.08234447986
2468,0.08262822032
2467,0.08260310441
2466,0.08250230551
2465,0.0824605152
2464,0.08288454264
2463,0.08277799934
2462,0.08256441355
2461,0.08285599947
2460,0.08271016181
2459,0.0827922225
2458,0.08291007578
2457,0.08286104351
2456,0.0828050673
2455,0.08318299055
2454,0.0831797272
2453,0.08292273432
2452,0.0830450654
2451,0.08311800659
2450,0.08321681619
2449,0.08330844343
2448,0.08317176998
2447,0.08315336704
2446,0.08352945745
2445,0.08345419914
2444,0.08358377218
2443,0.08333716542
2442,0.08372375369
2441,0.08346818388
2440,0.08369534463
2439,0.08358182758
2438,0.08374720067
2437,0.08365921676
2436,0.08370500803
2435,0.08405324817
2434,0.08385711163
2433,0.08387501538
2432,0.08404963464
2431,0.08405274898
2430,0.08413317055
2429,0.08422394842
2428,0.08427920192
2427,0.08421976864
2426,0.08437649161
2425,0.08443383127
2424,0.08429475874
2423,0.08439104259
2422,0.08443647623
2421,0.08438126743
2420,0.08464019746
2419,0.08459169418
2418,0.08457820117
2417,0.08469534665
2416,0.08488766849
2415,0.08469207585
2414,0.08482013643
2413,0.08491621912
2412,0.08472797275
2411,0.08504922688
2410,0.08520813286
2409,0.08491121233
2408,0.08507438749
2407,0.08539967984
2406,0.08505703509
2405,0.08536498249
2404,0.08563821763
2403,0.08529466391
2402,0.08534935862
2401,0.08567457646
2400,0.08540147543
2399,0.0856058076
2398,0.08574318886
2397,0.08572584391
2396,0.08571184427
2395,0.08612371236
2394,0.08592907339
2393,0.08591323346
2392,0.08620402217
2391,0.08613974601
2390,0.08599545807
2389,0.08642203361
2388,0.08641343564
2387,0.08628579229
2386,0.08646290004
2385,0.08663752675
2384,0.0865694657
2383,0.0866311416
2382,0.08667140454
2381,0.08679341525
2380,0.08679062873
2379,0.08711098135
2378,0.08700792491
2377,0.08707865328
2376,0.08716144413
2375,0.08729741722
2374,0.08728165925
2373,0.08738322556
2372,0.08755090833
2371,0.08738028258
2370,0.08751993626
2369,0.08772045374
2368,0.08780327439
2367,0.08769831061
2366,0.08785048872
2365,0.08802868426
2364,0.0879708007
2363,0.08794978261
2362,0.08834858239
2361,0.0883725062
2360,0.08825519681
2359,0.08839728683
2358,0.08874368668
2357,0.08859719336
2356,0.0885855481
2355,0.08877293766
2354,0.0888145417
2353,0.08886897564
2352,0.08904301375
2351,0.08914836496
2350,0.08911041915
2349,0.08924274892
2348,0.08943715692
2347,0.08948859572
2346,0.08944673091
2345,0.08963729441
2344,0.08982806653
2343,0.08982036263
2342,0.08987861872
2341,0.09005787224
2340,0.09008797258
2339,0.08999156207
2338,0.09026348591
2337,0.09041526169
2336,0.09041529149
2335,0.09044191241
2334,0.09068846703
2333,0.09074799716
2332,0.09067341685
2331,0.0907445848
2330,0.09109969437
2329,0.09115096927
2328,0.09109254181
2327,0.09135451913
2326,0.09159120917
2325,0.09125057608
2324,0.09134614468
2323,0.0917757377
2322,0.09175469726
2321,0.09188555926
2320,0.09199649841
2319,0.09214321524
2318,0.09224077314
2317,0.09227076918
2316,0.09234485775
2315,0.09269119054
2314,0.09254877269
2313,0.09263309091
2312,0.09289009869
2311,0.09291363508
2310,0.09296067059
2309,0.09317507595
2308,0.09334612638
2307,0.0933739543
2306,0.09347355366
2305,0.09356631339
2304,0.09399022907
2303,0.09395565093
2302,0.09384514391
2301,0.09400774539
2300,0.09423794597
2299,0.09422714263
2298,0.09452686459
2297,0.09445893764
2296,0.09471651167
2295,0.09460094571
2294,0.09461613744
2293,0.09483912587
2292,0.09518999606
2291,0.0951025635
2290,0.09533785284
2289,0.09561430663
2288,0.09549741447
2287,0.09572123736
2286,0.09541082382
2285,0.09577722847
2284,0.0961740464
2283,0.09633733332
2282,0.09616900235
2281,0.09637624025
2280,0.09655822814
2279,0.09650052339
2278,0.09676212817
2277,0.09653227031
2276,0.09718639404
2275,0.09709098935
2274,0.09697916359
2273,0.09715884179
2272,0.09773739427
2271,0.0978629142
2270,0.09780003875
2269,0.09784572572
2268,0.09813834727
2267,0.0985186547
2266,0.09825995564
2265,0.09912579507
2264,0.09852278233
2263,0.09898944944
2262,0.09951390326
2261,0.09915028512
2260,0.09900502115
2259,0.09970424324
2258,0.09976243973
2257,0.1000522524
2256,0.09965373576
2255,0.100196369
2254,0.100654915
2253,0.1006720513
2252,0.1006073356
2251,0.1006915718
2250,0.1008731201
2249,0.101231873
2248,0.1013970748
2247,0.1013912261
2246,0.1015731022
2245,0.1021163762
2244,0.1020991132
2243,0.1018991172
2242,0.1022275984
2241,0.1024910361
2240,0.1027528346
2239,0.1026674435
2238,0.1027030498
2237,0.1028135717
2236,0.1034099981
2235,0.1036804989
2234,0.1035074592
2233,0.1036821455
2232,0.1040354967
2231,0.104415834
2230,0.1043244898
2229,0.1045006514
2228,0.104615286
2227,0.1048583612
2226,0.1052192077
2225,0.1052365229
2224,0.1051993519
2223,0.1055506468
2222,0.1059674025
2221,0.1062536836
2220,0.1061668023
2219,0.1063509881
2218,0.1065977216
2217,0.1070335656
2216,0.1071024612
2215,0.1071193591
2214,0.1072396934
2213,0.1074853316
2212,0.1081397757
2211,0.1084085554
2210,0.108363539
2209,0.1084606275
2208,0.1085434034
2207,0.1089243889
2206,0.1091937572
2205,0.1093690768
2204,0.1095805392
2203,0.1096789986
2202,0.1098281145
2201,0.1102181002
2200,0.1101227552
2199,0.1101103127
2198,0.1104137897
2197,0.1106434017
2196,0.1110120639
2195,0.111054413
2194,0.1111670136
2193,0.1114536002
2192,0.1116046309
2191,0.1118223146
2190,0.1122755408
2189,0.1124059632
2188,0.1124650165
2187,0.1125257239
2186,0.1127189398
2185,0.1129244566
2184,0.1134081036
2183,0.1133228093
2182,0.1136542037
2181,0.1135305986
2180,0.1139525622
2179,0.1142819151
2178,0.1145836711
2177,0.1148619279
2176,0.114736028
2175,0.1150477529
2174,0.1151682138
2173,0.1157298535
2172,0.1159581989
2171,0.116307646
2170,0.1163071021
2169,0.1165769249
2168,0.1166752204
2167,0.1169141605
2166,0.1173302382
2165,0.1175439954
2164,0.1177218333
2163,0.1177657619
2162,0.1180354357
2161,0.1182213947
2160,0.1186998561
2159,0.1188884154
2158,0.1192926243
2157,0.1193496287
2156,0.119531244
2155,0.1198708862
2154,0.1199969947
2153,0.1203360409
2152,0.1204906404
2151,0.1208184212
2150,0.1209905222
2149,0.1213260069
2148,0.12168926
2147,0.1217739135
2146,0.1221091151
2145,0.1222448573
2144,0.122524634
2143,0.1227282882
2142,0.1230592802
2141,0.1233774498
2140,0.1236375198
2139,0.1238360852
2138,0.1240779012
2137,0.1243268102
2136,0.1244916543
2135,0.1248083264
2134,0.1252035052
2133,0.1254307479
2132,0.1256310642
2131,0.1259184331
2130,0.1260954142
2129,0.1262644976
2128,0.1268499792
2127,0.1269139349
2126,0.1272841543
2125,0.1275453269
2124,0.1279789358
2123,0.1281627715
2122,0.128237471
2121,0.1285133511
2120,0.1289382577
2119,0.1292433739
2118,0.1293969154
2117,0.1298787147
2116,0.1302521229
2115,0.1303339601
2114,0.1306476742
2113,0.130959481
2112,0.1312724054
2111,0.1317135394
2110,0.1318373084
2109,0.1322599351
2108,0.1325723529
2107,0.1330570579
2106,0.1331700832
2105,0.1334061474
2104,0.1338475645
2103,0.1339534819
2102,0.1342730373
2101,0.1349109113
2100,0.1350658983
2099,0.1353626251
2098,0.1356716156
2097,0.1359694898
2096,0.136363849
2095,0.136684224
2094,0.1369956732
2093,0.1373013556
2092,0.1376171261
2091,0.1380858272
2090,0.1381136924
2089,0.1385464966
2088,0.1389402747
2087,0.1394534409
2086,0.1396355927
2085,0.139947176
2084,0.1401814073
2083,0.1407340169
2082,0.1409514844
2081,0.1414478868
2080,0.1415186971
2079,0.1420484334
2078,0.142446965
2077,0.1426855326
2076,0.143114686
2075,0.1434510648
2074,0.1436856389
2073,0.1441976279
2072,0.1446711123
2071,0.1449911743
2070,0.1452283859
2069,0.1457078755
2068,0.146039322
2067,0.1464026719
2066,0.1467161328
2065,0.1471251249
2064,0.1474643797
2063,0.1477864683
2062,0.1483830512
2061,0.1485737711
2060,0.1490030438
2059,0.149178043
2058,0.1496866196
2057,0.1501981318
2056,0.150398165
2055,0.150914982
2054,0.1511610746
2053,0.1516945064
2052,0.1519995183
2051,0.1523837745
2050,0.1527737826
2049,0.1530216187
2048,0.1534820348
2047,0.1538739204
2046,0.1543703377
2045,0.1546822488
2044,0.155148983
2043,0.1554284692
2042,0.155836463
2041,0.1562937945
2040,0.1565618068
2039,0.1571108401
2038,0.1573972106
2037,0.1578763276
2036,0.1580281258
2035,0.1586297154
2034,0.1590566933
2033,0.1592991054
2032,0.1597643942
2031,0.1601974815
2030,0.1606230885
2029,0.1609624326
2028,0.1613259166
2027,0.161697343
2026,0.1622546017
2025,0.1624234021
2024,0.1628715694
2023,0.163252756
2022,0.1635266393
2021,0.1640809774
2020,0.164451614
2019,0.1650328785
2018,0.1652556211
2017,0.165632531
2016,0.1661251634
2015,0.1664556563
2014,0.1668061018
2013,0.1671805233
2012,0.1676030904
2011,0.1680428386
2010,0.1685171872
2009,0.1687856764
2008,0.1692348421
2007,0.1694398671
2006,0.1699437946
2005,0.1703794599
2004,0.1708162725
2003,0.1710635722
2002,0.1715533733
2001,0.1716983318
2000,0.1722470075
1999,0.1728063077
1998,0.1731843203
1997,0.1735618562
1996,0.1738692522
1995,0.1741937846
1994,0.1746890694
1993,0.1751245856
1992,0.1754474342
1991,0.1758245379
1990,0.1761471629
1989,0.1765368879
1988,0.1768721342
1987,0.1772213578
1986,0.1775925159
1985,0.1779072285
1984,0.1783262789
1983,0.1786620617
1982,0.1790133417
1981,0.1793682724
1980,0.179734543
1979,0.1801796705
1978,0.180536896
1977,0.1807810366
1976,0.1811645329
1975,0.1817027479
1974,0.1818882972
1973,0.1821485609
1972,0.1826556772
1971,0.1829533726
1970,0.1833377182
1969,0.183661148
1968,0.1839891076
1967,0.1842061579
1966,0.1847995073
1965,0.1850208193
1964,0.1853621006
1963,0.1857195199
1962,0.1860735863
1961,0.186435014
1960,0.1867536902
1959,0.1870713681
1958,0.1874249429
1957,0.18772237
1956,0.1880809069
1955,0.1884247065
1954,0.1888560802
1953,0.1890679002
1952,0.1895140857
1951,0.1897818446
1950,0.1901890188
1949,0.1905353516
1948,0.1909027547
1947,0.1911690533
1946,0.1914426237
1945,0.1919061542
1944,0.1921448112
1943,0.1924499124
1942,0.1929117441
1941,0.1931603253
1940,0.1935677677
1939,0.1939355284
1938,0.1943820417
1937,0.1946898997
1936,0.1949570626
1935,0.1952218711
1934,0.1956985593
1933,0.1960899234
1932,0.1963227689
1931,0.1966445446
1930,0.197015211
1929,0.1974053234
1928,0.1978773773
1927,0.198216781
1926,0.1985006034
1925,0.1987069547
1924,0.1993968636
1923,0.1996722221
1922,0.1993968189
1921,0.2001867741
1920,0.200953126
1919,0.201173529
1918,0.2012478709
1917,0.2017117739
1916,0.2021322697
1915,0.2023711801
1914,0.2029538304
1913,0.2031326741
1912,0.2033845335
1911,0.203902185
1910,0.2042865604
1909,0.2044818699
1908,0.2045560777
1907,0.204846099
1906,0.2059571296
1905,0.2062841356
1904,0.2062475085
1903,0.2067462355
1902,0.2069663554
1901,0.2070233077
1900,0.207905516
1899,0.2084227651
1898,0.2085162252
1897,0.2089359462
1896,0.2090727836
1895,0.2093701661
1894,0.2097920477
1893,0.2102486342
1892,0.2103969753
1891,0.2107047588
1890,0.2113689035
1889,0.2116613239
1888,0.2118715793
1887,0.2120968848
1886,0.2124052346
1885,0.2126167417
1884,0.2132634372
1883,0.2133925408
1882,0.2136584222
1881,0.2140630186
1880,0.2143680751
1879,0.214485094
1878,0.2146340013
1877,0.2152496278
1876,0.21552293
1875,0.2154100239
1874,0.2158073634
1873,0.216313839
1872,0.2166096419
1871,0.216863513
1870,0.2172740102
1869,0.2170491219
1868,0.2179319113
1867,0.2182641625
1866,0.2180222571
1865,0.2181987017
1864,0.218677789
1863,0.2188039422
1862,0.2187231481
1861,0.2187922448
1860,0.2194736898
1859,0.2198510915
1858,0.219600752
1857,0.2200852185
1856,0.2201754153
1855,0.2200752795
1854,0.2205810547
1853,0.220834583
1852,0.2208344489
1851,0.2208350152
1850,0.2208559811
1849,0.2208831012
1848,0.2215157896
1847,0.221924156
1846,0.2216821909
1845,0.2215411365
1844,0.2215714455
1843,0.2214424759
1842,0.2218911946
1841,0.222079739
1840,0.2220404595
1839,0.2220569104
1838,0.2219117731
1837,0.222145319
1836,0.2222872078
1835,0.2224284112
1834,0.2222045064
1833,0.2221200615
1832,0.2220709771
1831,0.2222822756
1830,0.2222512364
1829,0.2222427279
1828,0.2222124934
1827,0.2221366316
1826,0.2221764922
1825,0.2220383435
1824,0.2218461931
1823,0.2218606472
1822,0.2217585295
1821,0.2218842357
1820,0.2217960209
1819,0.2215770185
1818,0.2214281112
1817,0.2213574797
1816,0.2212130874
1815,0.2212290317
1814,0.2209919393
1813,0.2208259255
1812,0.220745489
1811,0.2206440717
1810,0.2204994112
1809,0.2203279287
1808,0.2200251967
1807,0.2200513482
1806,0.2198299617
1805,0.2195498943
1804,0.2192858756
1803,0.2191478312
1802,0.2189518064
1801,0.2189091742
1800,0.2185783833
1799,0.218383953
1798,0.218235448
1797,0.2179330587
1796,0.2177624106
1795,0.2174586058
1794,0.2172681689
1793,0.2169944793
1792,0.2168002725
1791,0.2165597826
1790,0.216242075
1789,0.2160655707
1788,0.2158872634
1787,0.2156145722
1786,0.2153231353
1785,0.2151351273
1784,0.2147565633
1783,0.2144332081
1782,0.2143145651
1781,0.2140395492
1780,0.213657245
1779,0.2133889496
1778,0.2130894065
1777,0.2128428519
1776,0.2125721872
1775,0.2122146785
1774,0.2119711787
1773,0.2116404176
1772,0.2113745511
1771,0.2111296803
1770,0.2107186764
1769,0.210466519
1768,0.2101342231
1767,0.2099972963
1766,0.2095928192
1765,0.2092878819
1764,0.2089805454
1763,0.2086683363
1762,0.2083915174
1761,0.2081011236
1760,0.2077458203
1759,0.2074492276
1758,0.2071843594
1757,0.2069135755
1756,0.2065702677
1755,0.2062103003
1754,0.2058393508
1753,0.2056597918
1752,0.205252409
1751,0.2050016671
1750,0.2047434747
1749,0.2043446004
1748,0.2040724307
1747,0.2037932426
1746,0.2033629566
1745,0.2031566054
1744,0.2027960271
1743,0.2024089247
1742,0.2021764666
1741,0.2018681169
1740,0.2014457434
1739,0.2011832446
1738,0.2008638829
1737,0.2005657405
1736,0.2002174854
1735,0.1999158859
1734,0.1995083541
1733,0.1991116852
1732,0.1988536566
1731,0.1985501945
1730,0.1982270777
1729,0.1978584379
1728,0.1974772662
1727,0.1971734911
1726,0.1969340444
1725,0.1964888871
1724,0.1961415261
1723,0.1957502365
1722,0.1954152286
1721,0.1951623112
1720,0.1947619319
1719,0.1944280565
1718,0.1940029711
1717,0.1936896145
1716,0.1933381706
1715,0.1929656714
1714,0.192563951
1713,0.1922060996
1712,0.1918920577
1711,0.1914311945
1710,0.1911200881
1709,0.1907345802
1708,0.1903423369
1707,0.1899881959
1706,0.1895122081
1705,0.1891855448
1704,0.1887917519
1703,0.1883565634
1702,0.1879674792
1701,0.1876056045
1700,0.187219575
1699,0.1868715733
1698,0.186419189
1697,0.1860300452
1696,0.1856153607
1695,0.1852362901
1694,0.1848548204
1693,0.1844808459
1692,0.184021771
1691,0.1836121678
1690,0.1833091676
1689,0.1828637868
1688,0.182385534
1687,0.1820017099
1686,0.1815948337
1685,0.1811872721
1684,0.1807989329
1683,0.1803937703
1682,0.179939732
1681,0.1796060205
1680,0.1791623831
1679,0.1787548363
1678,0.178404063
1677,0.1780120879
1676,0.1776005477
1675,0.1772368103
1674,0.1767860949
1673,0.1764154732
1672,0.176041007
1671,0.1756890863
1670,0.1752536148
1669,0.1749088913
1668,0.1744621247
1667,0.1740903109
1666,0.1737210006
1665,0.1733682156
1664,0.1729346067
1663,0.1723979414
1662,0.1721117795
1661,0.1716957986
1660,0.1713326722
1659,0.170938462
1658,0.1705309302
1657,0.1701492071
1656,0.1697839648
1655,0.1694203317
1654,0.168982774
1653,0.1685861498
1652,0.168149814
1651,0.1678737998
1650,0.1674523652
1649,0.1670444012
1648,0.1666141301
1647,0.1662558317
1646,0.1659087539
1645,0.1654732525
1644,0.165119797
1643,0.1646826863
1642,0.1642615497
1641,0.1639654934
1640,0.1635819376
1639,0.1631628573
1638,0.1627869755
1637,0.1624462754
1636,0.1620532721
1635,0.1617621332
1634,0.1613202542
1633,0.1609394103
1632,0.1605470628
1631,0.1601496339
1630,0.1598638892
1629,0.1594573706
1628,0.1591521651
1627,0.158779785
1626,0.1583970636
1625,0.1580600441
1624,0.1576681286
1623,0.1572496444
1622,0.1569346935
1621,0.156608358
1620,0.156360209
1619,0.1559461653
1618,0.1555484533
1617,0.1551871002
1616,0.1548416615
1615,0.1545576006
1614,0.1541964412
1613,0.1538590491
1612,0.1535658985
1611,0.1532143801
1610,0.1528927982
1609,0.1525892317
1608,0.1522867531
1607,0.1519905925
1606,0.1515981704
1605,0.1513541788
1604,0.1510922611
1603,0.150712043
1602,0.1504394114
1601,0.1501260996
1600,0.1498069614
1599,0.1496460289
1598,0.1492993683
1597,0.1490299702
1596,0.1488389075
1595,0.1484799981
1594,0.1482485384
1593,0.1480104029
1592,0.147733286
1591,0.1474364996
1590,0.1472115815
1589,0.1470190436
1588,0.1467596889
1587,0.1464526802
1586,0.1463122815
1585,0.1460465342
1584,0.1458235383
1583,0.1455497593
1582,0.1454027444
1581,0.145195514
1580,0.1449828893
1579,0.1447346807
1578,0.1444823593
1577,0.1442720294
1576,0.1441065073
1575,0.1439341158
1574,0.1437526047
1573,0.1435072869
1572,0.1433014721
1571,0.1430710256
1570,0.142950207
1569,0.1427555829
1568,0.1425984949
1567,0.1424084902
1566,0.1422516108
1565,0.1420843005
1564,0.1419021487
1563,0.1417389214
1562,0.1415241212
1561,0.1413827091
1560,0.1412499547
1559,0.141113773
1558,0.1408955455
1557,0.1407316923
1556,0.1405945569
1555,0.1404549927
1554,0.1403075755
1553,0.1401980668
1552,0.1400377899
1551,0.1398890913
1550,0.1397487074
1549,0.1396318078
1548,0.1395097673
1547,0.1393425316
1546,0.1391712427
1545,0.1391472369
1544,0.1389551312
1543,0.1388857365
1542,0.1387218833
1541,0.138565436
1540,0.1385105699
1539,0.1383551955
1538,0.1382843554
1537,0.1381746083
1536,0.1380363107
1535,0.1379437
1534,0.1378251761
1533,0.1377950013
1532,0.1376548409
1531,0.1374578774
1530,0.1373967528
1529,0.1373131871
1528,0.1372399628
1527,0.1370856166
1526,0.1370019168
1525,0.1369307786
1524,0.1368247718
1523,0.1367905438
1522,0.1366677731
1521,0.1366356015
1520,0.1364689618
1519,0.1363886893
1518,0.1363600194
1517,0.1362234056
1516,0.1361547559
1515,0.1360895187
1514,0.1360039711
1513,0.1359803975
1512,0.1358614266
1511,0.1358107775
1510,0.1357207149
1509,0.1356503218
1508,0.1356057376
1507,0.1355129778
1506,0.1354477555
1505,0.1353697628
1504,0.1352888197
1503,0.1353044063
1502,0.1352163255
1501,0.1351133138
1500,0.13503775
1499,0.1350183189
1498,0.1349160671
1497,0.1349183917
1496,0.1348862946
1495,0.1347328722
1494,0.1347500682
1493,0.1346816272
1492,0.1346702129
1491,0.1345422119
1490,0.1345458925
1489,0.1344437748
1488,0.1344691515
1487,0.1343863159
1486,0.1343519539
1485,0.134228915
1484,0.1342981011
1483,0.1342411935
1482,0.1341404915
1481,0.1340718567
1480,0.1340683699
1479,0.1340564191
1478,0.1339626312
1477,0.1339487582
1476,0.1339130253
1475,0.1337902844
1474,0.1337931752
1473,0.1338249743
1472,0.133786723
1471,0.133712545
1470,0.1337004602
1469,0.133630991
1468,0.1336268634
1467,0.13359496
1466,0.1335402131
1465,0.1335168779
1464,0.1334376782
1463,0.1334658712
1462,0.1334306449
1461,0.1334025562
1460,0.1333032548
1459,0.1333208382
1458,0.1332577914
1457,0.1332782954
1456,0.1332361549
1455,0.1331699193
1454,0.1331335157
1453,0.1330807209
1452,0.133088991
1451,0.1330963373
1450,0.1330396831
1449,0.1329998374
1448,0.1329866946
1447,0.1329690069
1446,0.1329525113
1445,0.1329110265
1444,0.1328535676
1443,0.13284868
1442,0.1328775287
1441,0.1328168958
1440,0.1327529401
1439,0.1326961964
1438,0.1327256411
1437,0.1327152401
1436,0.1327334344
1435,0.132569328
1434,0.1325990856
1433,0.1325976104
1432,0.1325846463
1431,0.1325731277
1430,0.13247253
1429,0.1324610859
1428,0.1324965209
1427,0.132459715
1426,0.1323788166
1425,0.1323601007
1424,0.1323424727
1423,0.1323414594
1422,0.1323139966
1421,0.1322818398
1420,0.1322858781
1419,0.1322334707
1418,0.1322187632
1417,0.1321684122
1416,0.1321782619
1415,0.1322125942
1414,0.1320469975
1413,0.1321022213
1412,0.1321040541
1411,0.1320397705
1410,0.1320112199
1409,0.1320462674
1408,0.1319874674
1407,0.1320109963
1406,0.131948486
1405,0.1319563836
1404,0.1319659948
1403,0.1319015622
1402,0.131868884
1401,0.1319843382
1400,0.1320358068
1399,0.1318943352
1398,0.1317902505
1397,0.1318117529
1396,0.131860882
1395,0.1318504959
1394,0.1317221373
1393,0.1317603141
1392,0.1318352818
1391,0.1316678375
1390,0.1316035837
1389,0.1316564083
1388,0.131579712
1387,0.1315886825
1386,0.1316258758
1385,0.1315296441
1384,0.1315465719
1383,0.1316373348
1382,0.1316318065
1381,0.1315016747
1380,0.1315192282
1379,0.1314315945
1378,0.1314541698
1377,0.1314371675
1376,0.1314024478
1375,0.1312814653
1374,0.1312578022
1373,0.1311430186
1372,0.1312343627
1371,0.1312268078
1370,0.1311355978
1369,0.1311070621
1368,0.1311770827
1367,0.1312031299
1366,0.1310613006
1365,0.1310329139
1364,0.131087631
1363,0.1309589297
1362,0.1311554462
1361,0.1311221123
1360,0.1310270429
1359,0.130974859
1358,0.1309802383
1357,0.1309158802
1356,0.1309472769
1355,0.1308566779
1354,0.1308875084
1353,0.1309614182
1352,0.1308708191
1351,0.1308616102
1350,0.1308876425
1349,0.1308020353
1348,0.1308378577
1347,0.1308421642
1346,0.1308630854
1345,0.1308317333
1344,0.1308163404
1343,0.1307658553
1342,0.1307871938
1341,0.1308411062
1340,0.1308272928
1339,0.1308271885
1338,0.1308197379
1337,0.1308402419
1336,0.1307942718
1335,0.1308302581
1334,0.1307997555
1333,0.1308041662
1332,0.1308297813
1331,0.1308351308
1330,0.1308998615
1329,0.1308548898
1328,0.1308409721
1327,0.1309224218
1326,0.1309045404
1325,0.1309064031
1324,0.1308862418
1323,0.1309207827
1322,0.1309279501
1321,0.1309223175
1320,0.1310362071
1319,0.1309935749
1318,0.1309981942
1317,0.1309804469
1316,0.1310493648
1315,0.1310953349
1314,0.1310966611
1313,0.1311322004
1312,0.1310918629
1311,0.1311772168
1310,0.1312229186
1309,0.1312848032
1308,0.131214723
1307,0.1312700212
1306,0.1312960088
1305,0.1313818842
1304,0.1314056814
1303,0.1314444989
1302,0.1314152777
1301,0.1315110326
1300,0.1315321922
1299,0.1316019446
1298,0.1316247582
1297,0.1316314489
1296,0.1316626519
1295,0.1317879111
1294,0.1318033785
1293,0.1318476945
1292,0.1319039166
1291,0.1319586635
1290,0.1320525706
1289,0.1321369261
1288,0.1321345419
1287,0.1321922392
1286,0.1322447062
1285,0.1323325783
1284,0.1324258298
1283,0.1324872077
1282,0.1325466335
1281,0.1325677484
1280,0.1326717734
1279,0.1327537447
1278,0.1328420639
1277,0.1329159588
1276,0.13295044
1275,0.133017838
1274,0.1331738532
1273,0.1331771612
1272,0.1333308369
1271,0.1334048808
1270,0.133491993
1269,0.1335908473
1268,0.1337358654
1267,0.1337974668
1266,0.1338880807
1265,0.1339735687
1264,0.1341033727
1263,0.134251833
1262,0.1343080103
1261,0.1344314367
1260,0.1345520318
1259,0.1346709281
1258,0.1347824037
1257,0.1349344254
1256,0.1350443214
1255,0.1351708472
1254,0.1352752
1253,0.1354179233
1252,0.135543704
1251,0.1357020438
1250,0.1358171105
1249,0.1359341294
1248,0.1361115128
1247,0.1362534463
1246,0.1364037842
1245,0.1365611255
1244,0.1366654336
1243,0.1368261278
1242,0.1369906068
1241,0.13714616
1240,0.1372979432
1239,0.1374801546
1238,0.13759166
1237,0.1377701759
1236,0.1379981786
1235,0.1380698234
1234,0.1382483095
1233,0.1384688318
1232,0.1386275589
1231,0.1387906522
1230,0.1389866173
1229,0.1392054856
1228,0.1393807828
1227,0.1396086812
1226,0.1397404969
1225,0.1399255991
1224,0.140164569
1223,0.1403501928
1222,0.1405668557
1221,0.1407651901
1220,0.1409909427
1219,0.141184777
1218,0.1413937509
1217,0.1416120827
1216,0.1418245733
1215,0.1420460641
1214,0.1422690302
1213,0.142566219
1212,0.1427388191
1211,0.1430336088
1210,0.1432264745
1209,0.14346461
1208,0.1437840611
1207,0.1440312266
1206,0.1442210078
1205,0.1445073038
1204,0.1448246837
1203,0.1450763047
1202,0.1453935802
1201,0.1456037611
1200,0.1458447874
1199,0.1459888816
1198,0.1462308168
1197,0.1465282291
1196,0.1468006521
1195,0.1470925063
1194,0.147405386
1193,0.1477125883
1192,0.1479843706
1191,0.148231104
1190,0.148548767
1189,0.1488947421
1188,0.1492276043
1187,0.1494987756
1186,0.1497704834
1185,0.1500933021
1184,0.1504440606
1183,0.1507797688
1182,0.1510633379
1181,0.1513276696
1180,0.1516845673
1179,0.1520143896
1178,0.1523130089
1177,0.152663216
1176,0.1529621184
1175,0.1532525867
1174,0.1535647959
1173,0.1539274603
1172,0.1542467028
1171,0.1545273811
1170,0.1548863649
1169,0.1551887989
1168,0.15553464
1167,0.1558917463
1166,0.1561755687
1165,0.1564663649
1164,0.1568415612
1163,0.1571668237
1162,0.1574722677
1161,0.1577934176
1160,0.1581007987
1159,0.1584689021
1158,0.1588422507
1157,0.1591550857
1156,0.1594827175
1155,0.1598208696
1154,0.1601680517
1153,0.1605338007
1152,0.1609251201
1151,0.1612755209
1150,0.1616269797
1149,0.1619564146
1148,0.1623556763
1147,0.1627807617
1146,0.1631953418
1145,0.1635770053
1144,0.1639767736
1143,0.1644012332
1142,0.1648337692
1141,0.1652591825
1140,0.1656564176
1139,0.166168645
1138,0.1666209698
1137,0.167038843
1136,0.1675563008
1135,0.1680564135
1134,0.1685643941
1133,0.1690546721
1132,0.1695563495
1131,0.1700390577
1130,0.1705844849
1129,0.1711101681
1128,0.1716555506
1127,0.1722179502
1126,0.172738418
1125,0.1732890457
1124,0.1738148928
1123,0.1744015217
1122,0.1749689877
1121,0.1755001992
1120,0.1760575771
1119,0.1766391546
1118,0.1772055477
1117,0.1777407229
1116,0.1782976985
1115,0.1788190305
1114,0.1794290394
1113,0.1800070405
1112,0.1805592924
1111,0.181085214
1110,0.1816391498
1109,0.1821306795
1108,0.1826274544
1107,0.1831888855
1106,0.1837163121
1105,0.1841469854
1104,0.1846073419
1103,0.1851368546
1102,0.1856047362
1101,0.1860422492
1100,0.1863839626
1099,0.1868449152
1098,0.1872772574
1097,0.1876480728
1096,0.1880113333
1095,0.1883261353
1094,0.1886604726
1093,0.188978374
1092,0.1893225014
1091,0.1895622611
1090,0.1898173988
1089,0.1900776476
1088,0.1903698295
1087,0.1906068474
1086,0.1908219755
1085,0.1909905076
1084,0.1911990792
1083,0.1913906932
1082,0.1916076988
1081,0.1918130219
1080,0.1919570565
1079,0.1921149939
1078,0.1923143417
1077,0.1925143152
1076,0.1926784664
1075,0.1928571016
1074,0.1930102408
1073,0.193263799
1072,0.193430379
1071,0.1936833113
1070,0.1939167082
1069,0.1940317452
1068,0.1943052262
1067,0.1945631504
1066,0.1948040426
1065,0.1950557381
1064,0.1953111589
1063,0.1956370175
1062,0.1959595978
1061,0.1962620318
1060,0.196528092
1059,0.1968297362
1058,0.1971387714
1057,0.1974910498
1056,0.1978667676
1055,0.1982172728
1054,0.1985309422
1053,0.1989567876
1052,0.1993223876
1051,0.1996964961
1050,0.2000769973
1049,0.2004644871
1048,0.2007968724
1047,0.2012372613
1046,0.2015039921
1045,0.2019194663
1044,0.2023010999
1043,0.2026269287
1042,0.2029744834
1041,0.2033271044
1040,0.2036082
1039,0.2039204836
1038,0.2041953206
1037,0.2044985443
1036,0.204812035
1035,0.2050426304
1034,0.205254063
1033,0.2054673582
1032,0.2056358606
1031,0.205822885
1030,0.2059229761
1029,0.206056416
1028,0.2061570734
1027,0.2062207907
1026,0.2063067704
1025,0.2064151913
1024,0.2063548565
1023,0.2064279616
1022,0.2063984424
1021,0.20634
1020,0.2062853426
1019,0.2062286139
1018,0.2061061859
1017,0.2060378194
1016,0.2059301734
1015,0.2057774067
1014,0.205647707
1013,0.2054421753
1012,0.2053524554
1011,0.2051791251
1010,0.2049591243
1009,0.2047818005
1008,0.2045512646
1007,0.2043801248
1006,0.2041312009
1005,0.2039878815
1004,0.203692764
1003,0.2034330815
1002,0.2032074332
1001,0.2029208988
1000,0.2027219087
999,0.2024334669
998,0.2021095604
997,0.2018266767
996,0.2015088499
995,0.2012825608
994,0.2009292394
993,0.2006171793
992,0.2002577484
991,0.1999083012
990,0.1995871216
989,0.1992254406
988,0.1989055127
987,0.1985717863
986,0.1982097179
985,0.1978506446
984,0.1974740475
983,0.1970527023
982,0.1967027187
981,0.1963618547
980,0.1960111856
979,0.1956515163
978,0.1953435093
977,0.1949434876
976,0.1946482062
975,0.1943422407
974,0.1939588785
973,0.1936782151
972,0.1933377385
971,0.1929766834
970,0.1927088499
969,0.1924158484
968,0.1920674145
967,0.1918434948
966,0.1915785968
965,0.1912626028
964,0.1909801066
963,0.1906923354
962,0.1904108077
961,0.1901075542
960,0.1898551136
959,0.1896325201
958,0.1892825067
957,0.1889286637
956,0.1886870414
955,0.188367188
954,0.1881165057
953,0.1877486855
952,0.1874179691
951,0.1870677024
950,0.1867858469
949,0.1863699257
948,0.1860726774
947,0.1856764108
946,0.1853845865
945,0.185071677
944,0.1846016347
943,0.1842873544
942,0.1838330626
941,0.1835092157
940,0.1832673997
939,0.1828550398
938,0.1824135929
937,0.1820044667
936,0.1815882325
935,0.1811705381
934,0.1808690429
933,0.180579409
932,0.1801098287
931,0.179772526
930,0.1793457419
929,0.1790246814
928,0.1786225736
927,0.1782347262
926,0.1778203249
925,0.1773924828
924,0.1770149618
923,0.176605612
922,0.1762025058
921,0.1758580208
920,0.1754323989
919,0.1749719381
918,0.1746547073
917,0.1741480231
916,0.173698023
915,0.1733950377
914,0.1730588675
913,0.1725611687
912,0.1723037809
911,0.1717341244
910,0.1714981645
909,0.1710755527
908,0.1707173139
907,0.1703302115
906,0.1698551029
905,0.1695596427
904,0.1691678464
903,0.1688243896
902,0.168417871
901,0.1681363881
900,0.1677024513
899,0.1725244671
898,0.1667681783
897,0.1598036736
896,0.1712860167
895,0.1701486707
894,0.1678209454
893,0.1642966866
892,0.1619019955
891,0.1647387743
890,0.1672957242
889,0.1657524109
888,0.1665397882
887,0.1637330204
886,0.1658219844
885,0.1679618508
884,0.1681231558
883,0.1655707955
882,0.1679281294
881,0.1643491834
880,0.1674306691
879,0.1665718108
878,0.161992684
877,0.1668366194
876,0.1638942063
875,0.1600229293
874,0.1646634787
873,0.1611305773
872,0.1622641981
871,0.1659929305
870,0.1612614095
869,0.1611480564
868,0.1641526669
867,0.1626229435
866,0.1608563662
865,0.1618929356
864,0.161547631
863,0.161975801
862,0.1619238257
861,0.1625935733
860,0.1593881249
859,0.1598771214
858,0.1607512832
857,0.1617013961
856,0.1599936187
855,0.1582851708
854,0.1604435295
853,0.1605008692
852,0.1602530777
851,0.1603150368
850,0.1599687487
849,0.1607549638
848,0.1603429765
847,0.1604510546
846,0.1598302573
845,0.1599128842
844,0.1595048308
843,0.1591615081
842,0.1590483636
841,0.1591956019
840,0.1592477411
839,0.1589781791
838,0.1594348699
837,0.1587168425
836,0.1594110429
835,0.1591415703
834,0.1593703777
833,0.1590810716
832,0.159512952
831,0.1592487544
830,0.1599080563
829,0.1592658162
828,0.159576267
827,0.1594043523
826,0.1598805338
825,0.1595387757
824,0.1599352956
823,0.1603053063
822,0.1601625234
821,0.1599003226
820,0.1602827162
819,0.160629347
818,0.1607594937
817,0.1609918326
816,0.1610216498
815,0.1607012153
814,0.1611725539
813,0.1611327529
812,0.1614771187
811,0.1617475301
810,0.1622902304
809,0.1624288857
808,0.1626521051
807,0.1626841128
806,0.163176164
805,0.1630491912
804,0.1634680927
803,0.1636099368
802,0.1640276462
801,0.1640588343
800,0.1644767523
799,0.1645711213
798,0.1643466204
797,0.1653706431
796,0.1653211415
795,0.1655663997
794,0.165481776
793,0.165364325
792,0.1660299897
791,0.1663707197
790,0.1667067558
789,0.1668642163
788,0.166779086
787,0.1675041467
786,0.1676929295
785,0.1678542495
784,0.16802001
783,0.1680887341
782,0.168725729
781,0.168680951
780,0.1692605168
779,0.169331938
778,0.1698192507
777,0.1698420197
776,0.1702337414
775,0.170512557
774,0.170674324
773,0.1711516231
772,0.171908766
771,0.1721898615
770,0.1723839939
769,0.1728710979
768,0.1732994616
767,0.1741157472
766,0.1736403853
765,0.1746867448
764,0.1753211319
763,0.1756971925
762,0.1760879904
761,0.1765561253
760,0.1776880324
759,0.1779395491
758,0.1783588678
757,0.1790185869
756,0.1793660522
755,0.1801060587
754,0.180507347
753,0.1809105873
752,0.1809688956
751,0.1819602251
750,0.1824490875
749,0.1826123148
748,0.1830823421
747,0.1835021079
746,0.1836749464
745,0.1840459257
744,0.1841562837
743,0.1843723506
742,0.1849357337
741,0.1848998666
740,0.1852938831
739,0.1855766326
738,0.1852775812
737,0.185486123
736,0.185609892
735,0.1855225861
734,0.185593456
733,0.1856424809
732,0.1860383153
731,0.1858705729
730,0.1856186986
729,0.1861495227
728,0.1858734339
727,0.1861803681
726,0.1863178164
725,0.1864115596
724,0.1865637153
723,0.1866476089
722,0.1865098625
721,0.186943993
720,0.187055245
719,0.1871076077
718,0.1874244213
717,0.1874739677
716,0.1874544322
715,0.1878364533
714,0.1880352795
713,0.1883548945
712,0.188338995
711,0.1886309236
710,0.1889061928
709,0.1890502572
708,0.1891827732
707,0.1894274354
706,0.1897365302
705,0.1894526184
704,0.189381063
703,0.1896269619
702,0.1897032708
701,0.1895548105
700,0.1896743029
699,0.1896377653
698,0.189584896
697,0.189441368
696,0.1894245446
695,0.1893434376
694,0.189326182
693,0.1892185956
692,0.1891598105
691,0.1889265031
690,0.1887713522
689,0.1884642243
688,0.1883669943
687,0.1881895214
686,0.1880112886
685,0.188021794
684,0.1877339333
683,0.1875608265
682,0.1872859448
681,0.1870487034
680,0.1869602352
679,0.1869652867
678,0.186628595
677,0.1864852905
676,0.186242044
675,0.1861752421
674,0.185995996
673,0.1859429777
672,0.1855158806
671,0.1853206903
670,0.1849713176
669,0.1850345731
668,0.1848226041
667,0.184707582
666,0.1844418943
665,0.184317857
664,0.1841691434
663,0.183914423
662,0.1839311421
661,0.1836800873
660,0.1836767644
659,0.1833972931
658,0.1833052933
657,0.1831699908
656,0.1829589605
655,0.1831008047
654,0.1828779131
653,0.1828523576
652,0.182509616
651,0.1824547648
650,0.1825062633
649,0.1822458953
648,0.1820834428
647,0.1820303351
646,0.1817681342
645,0.1817376018
644,0.1815537065
643,0.1814365387
642,0.1813251525
641,0.180905357
640,0.1808424741
639,0.1809095293
638,0.1807390749
637,0.1805888712
636,0.1804714948
635,0.1802250594
634,0.1801053137
633,0.1800226718
632,0.1798633039
631,0.179771468
630,0.1796934307
629,0.1795476973
628,0.1794266999
627,0.1792679727
626,0.1792030931
625,0.1792037189
624,0.1792292148
623,0.1790759265
622,0.1790460199
621,0.1789156199
620,0.1787984669
619,0.1787685007
618,0.1787633151
617,0.1788444668
616,0.1786063164
615,0.178939268
614,0.1788849831
613,0.1789170355
612,0.1790027469
611,0.1791587919
610,0.1791598052
609,0.1792881191
608,0.1793437451
607,0.1794374585
606,0.1795895696
605,0.1796379983
604,0.1800453961
603,0.1801624596
602,0.1803747863
601,0.1807125062
600,0.1808090657
599,0.1812609881
598,0.1814952344
597,0.1816994548
596,0.1818460673
595,0.1820719093
594,0.182559818
593,0.1825826764
592,0.1828562915
591,0.1830854565
590,0.1831639111
589,0.1832907647
588,0.1835384071
587,0.1836100221
586,0.183594659
585,0.1838405281
584,0.1839452535
583,0.1840230674
582,0.1839810759
581,0.1841654629
580,0.1840220839
579,0.1842448562
578,0.184385851
577,0.1845997423
576,0.1846885234
575,0.1850393713
574,0.185262382
573,0.1856685877
572,0.1858933568
571,0.1860924214
570,0.1868694723
569,0.1869338751
568,0.1873616576
567,0.187766403
566,0.1884695292
565,0.1888302863
564,0.1892753839
563,0.1898577511
562,0.1903152615
561,0.1906461865
560,0.1912673116
559,0.19152385
558,0.1918520778
557,0.1920975149
556,0.1924444288
555,0.1926460713
554,0.1929728538
553,0.1928849369
552,0.192924127
551,0.1926332116
550,0.1926227659
549,0.1926556826
548,0.1924631
547,0.1922340691
546,0.1918939501
545,0.1919582188
544,0.1919647455
543,0.1918519139
542,0.1916532964
541,0.1916468143
540,0.1916804165
539,0.1918523908
538,0.1920193136
537,0.1922982186
536,0.1923783571
535,0.1928355843
534,0.1932562143
533,0.1936794221
532,0.1939136833
531,0.1946156323
530,0.1948212385
529,0.195220992
528,0.1955545843
527,0.196143195
526,0.196457684
525,0.196881175
524,0.197237283
523,0.1970971078
522,0.1974451989
521,0.1975293905
520,0.1978109628
519,0.1980196387
518,0.1979368776
517,0.1978864521
516,0.1981674284
515,0.1982617378
514,0.1979960352
513,0.1981967688
512,0.1982963085
511,0.1985959113
510,0.1986154616
509,0.1988197863
508,0.19903934
507,0.1992029101
506,0.1996218413
505,0.2002049237
504,0.2003311962
503,0.2009319514
502,0.2014293671
501,0.2019001395
500,0.2026961446
499,0.2032078058
498,0.2038093805
497,0.204246074
496,0.2047924995
495,0.2052128315
494,0.2058051676
493,0.2060609609
492,0.2064305842
491,0.2063761801
490,0.2063886672
489,0.2061226219
488,0.2057969421
487,0.2057475448
486,0.2051782012
485,0.2048750222
484,0.2046710551
483,0.2044255883
482,0.2039208561
481,0.2040106505
480,0.2037492841
479,0.2037671208
478,0.2040906549
477,0.204341501
476,0.2045029253
475,0.2050681114
474,0.2053153217
473,0.2061121762
472,0.2067711204
471,0.2072334141
470,0.2078313977
469,0.2083729059
468,0.2088506073
467,0.2089601159
466,0.2094439119
465,0.2092002481
464,0.2091309875
463,0.2088818848
462,0.2090136409
461,0.2083782256
460,0.2078987509
459,0.2077124417
458,0.2074653357
457,0.2071393579
456,0.2068690211
455,0.2070980221
454,0.2067216933
453,0.2068138719
452,0.2070265561
451,0.2074022293
450,0.2076629251
449,0.2080783546
448,0.2083851993
447,0.2089018971
446,0.2093433291
445,0.2097520232
444,0.2103593349
443,0.2109570056
442,0.2111258805
441,0.2116291672
440,0.2119460851
439,0.212004751
438,0.2121064067
437,0.2122484744
436,0.2128505409
435,0.2128864229
434,0.2130296677
433,0.213683024
432,0.2137134224
431,0.2141200304
430,0.214338854
429,0.2146145254
428,0.2152933478
427,0.2157976627
426,0.2161445022
425,0.2166127563
424,0.2170807421
423,0.2176513076
422,0.2182834148
421,0.2183823138
420,0.2185578793
419,0.2189734131
418,0.2188195735
417,0.2189128995
416,0.2190264314
415,0.2193264514
414,0.2195052207
413,0.2197164893
412,0.2198778987
411,0.2200495899
410,0.2203102559
409,0.2210563123
408,0.2215431333
407,0.221816808
406,0.2225967497
405,0.2232711166
404,0.2241610587
403,0.2245811671
402,0.2249938846
401,0.2258101255
400,0.2262544036
399,0.2272063494
398,0.2272948027
397,0.2275428474
396,0.2278899699
395,0.2282104194
394,0.228503406
393,0.2285706103
392,0.2289700508
391,0.2290895283
390,0.2295445502
389,0.2301779985
388,0.2305319458
387,0.2308543473
386,0.2315740585
385,0.2320659161
384,0.2325816154
383,0.2334486246
382,0.2341067344
381,0.2349365652
380,0.2351846099
379,0.2367460281
378,0.2370280325
377,0.23818928
376,0.2388609201
375,0.2392676026
374,0.2400912493
373,0.2417032719
372,0.2422304451
371,0.2428007126
370,0.2438197136
369,0.2442561835
368,0.244223848
367,0.2448363751
366,0.2457707077
365,0.2466199398
364,0.2466956377
363,0.2469903529
362,0.2478340566
361,0.2486204356
360,0.2494531572
359,0.2502945662
358,0.2513061464
357,0.2525376976
356,0.2539308667
355,0.2552320361
354,0.2561780214
353,0.2571407557
352,0.2580768168
351,0.2593821287
350,0.2599113584
349,0.2589416802
348,0.2591703236
347,0.2612378299
346,0.2604462206
345,0.2623354495
344,0.2628728449
343,0.2642339468
342,0.2650648654
341,0.2658667266
340,0.2676790357
339,0.2681421936
338,0.269407779
337,0.2713002861
336,0.2723065317
335,0.2737368941
334,0.274538815
333,0.2753283381
332,0.2766009569
331,0.2776360512
330,0.2788544595
329,0.2799738646
328,0.2810186744
327,0.2824891508
326,0.2831096351
325,0.2857171595
324,0.2861715555
323,0.2883017659
322,0.2897118032
321,0.2921063304
320,0.2943055928
319,0.295335412
318,0.2970996499
317,0.2989107668
316,0.300824523
315,0.3020634949
314,0.3044272661
313,0.3066827357
312,0.3081347644
311,0.3104715943
310,0.3129054904
309,0.3143424392
308,0.3160825074
307,0.3191213906
306,0.3211373985
305,0.3242717087
304,0.3262041807
303,0.3284545243
302,0.3310133517
301,0.3329515755
300,0.3349561393
299,0.3379768431
298,0.3404506445
297,0.3427612185
296,0.344414711
295,0.3474698365
294,0.3504269719
293,0.3533169627
292,0.3562652469
291,0.3586689532
290,0.3618946373
289,0.3640997112
288,0.366235733
287,0.3696213365
286,0.3717259765
285,0.3742206693
284,0.3763493299
283,0.3785883188
282,0.3812734783
281,0.3829685748
280,0.3851572871
279,0.3858842254
278,0.3876891434
277,0.3902097642
276,0.3910105824
275,0.3923281431
274,0.3931646347
273,0.3936732113
272,0.3945163786
271,0.3948401213
270,0.3950491548
269,0.3944597244
268,0.3946559727
267,0.3939377367
266,0.3932435513
265,0.3922565579
264,0.3920839131
263,0.3912087977
262,0.3901390731
261,0.3883911371
260,0.3873072863
259,0.3857201934
258,0.384062469
257,0.3825303912
256,0.381003201
255,0.3791498244
254,0.3769872785
253,0.3744896352
252,0.3723661304
251,0.3694802523
250,0.3667616844
249,0.3640291989
248,0.3605633378
247,0.3573765755
246,0.353435725
245,0.3499711454
244,0.3452961743
243,0.3417953551
242,0.3379209936
241,0.3340976834
240,0.329911232
239,0.3266529739
238,0.3225986958
237,0.3196639419
236,0.3160967231
235,0.3135606349
234,0.3112600446
233,0.3085836172
232,0.3059504628
231,0.3038699925
230,0.3021413982
229,0.3009012043
228,0.2995920181
227,0.29954651
226,0.2986034155
225,0.2996706665
224,0.3019348681
223,0.3065827787
222,0.3114643097
221,0.3188083172
220,0.3292317986
219,0.3424917459
218,0.3584184945
217,0.3757635653
216,0.3962287307
215,0.4185266495
214,0.4420841336
213,0.4656352699
212,0.488548398
211,0.5104029179
210,0.5299651027
209,0.5454950929
208,0.5591375232
207,0.5689560771
206,0.5757946372
205,0.5777734518
204,0.5764823556
203,0.5722059608
202,0.5657101274
201,0.5589382648
200,0.5461184382
