Dodecane_KIT_Vac_1200
Wavelength (nm),Abs
2655,0.07669275254
2654,0.07571998984
2653,0.07814386487
2652,0.07735337317
2651,0.07799275964
2650,0.07853581011
2649,0.07791343331
2648,0.07844552398
2647,0.07744621485
2646,0.08003123105
2645,0.08050432056
2644,0.07952411473
2643,0.07758075744
2642,0.07945153117
2641,0.07843185216
2640,0.0783905834
2639,0.07860591263
2638,0.07840003818
2637,0.07925671339
2636,0.07709974051
2635,0.07645048946
2634,0.07686859369
2633,0.079111211
2632,0.07568500936
2631,0.07341974974
2630,0.0776764974
2629,0.07870510221
2628,0.07693981379
2627,0.07982586324
2626,0.07947922498
2625,0.07865725458
2624,0.07822432369
2623,0.0794640854
2622,0.07812248915
2621,0.07428369671
2620,0.07769566029
2619,0.07948351651
2618,0.07668355107
2617,0.0754635185
2616,0.07917498052
2615,0.07933998853
2614,0.07894797623
2613,0.07943008095
2612,0.07905941457
2611,0.07812735438
2610,0.07786923647
2609,0.07958681881
2608,0.07982632518
2607,0.07995230705
2606,0.0764554292
2605,0.07849716395
2604,0.0809571594
2603,0.07812019438
2602,0.0771272257
2601,0.07847598195
2600,0.07938433439
2599,0.07825934887
2598,0.07840868831
2597,0.07545208931
2596,0.07394909114
2595,0.07805264741
2594,0.07955034822
2593,0.08006397635
2592,0.08006966859
2591,0.07893496752
2590,0.0774736926
2589,0.07753814757
2588,0.08008317649
2587,0.08215074241
2586,0.07922621071
2585,0.07682783902
2584,0.08029250056
2583,0.08073925227
2582,0.07944761217
2581,0.07916690409
2580,0.08061607182
2579,0.07929027081
2578,0.0788873136
2577,0.08221523464
2576,0.08178614825
2575,0.07969049364
2574,0.08044400811
2573,0.08117330074
2572,0.08029988408
2571,0.0797579214
2570,0.07911463082
2569,0.07953169942
2568,0.08007418364
2567,0.08007181436
2566,0.07939694822
2565,0.07946495712
2564,0.07937730849
2563,0.07816550136
2562,0.07740234584
2561,0.08044213802
2560,0.08223190904
2559,0.08085006475
2558,0.08064661175
2557,0.0803712979
2556,0.08050061762
2555,0.08054168522
2554,0.08020073175
2553,0.07978246361
2552,0.07904385775
2551,0.08053167909
2550,0.0802661255
2549,0.08064558357
2548,0.08085932583
2547,0.08041291684
2546,0.08069819957
2545,0.08084005862
2544,0.08049435169
2543,0.08065924048
2542,0.08043123037
2541,0.08072254807
2540,0.08112771064
2539,0.08122111112
2538,0.08068145812
2537,0.08002678305
2536,0.08035295457
2535,0.08076650649
2534,0.08079858869
2533,0.0804798007
2532,0.0805291608
2531,0.08059459925
2530,0.08097824454
2529,0.08122289181
2528,0.08129111677
2527,0.08129832894
2526,0.08147419989
2525,0.08130641282
2524,0.08202753216
2523,0.08159966022
2522,0.08106534183
2521,0.08203456551
2520,0.08151467144
2519,0.08171574771
2518,0.08164876699
2517,0.08125410229
2516,0.08148340881
2515,0.08165092021
2514,0.08194086701
2513,0.08177559078
2512,0.08154771477
2511,0.08151108027
2510,0.08200035989
2509,0.08173228055
2508,0.08192745596
2507,0.08172162622
2506,0.08184493333
2505,0.08160759509
2504,0.08209397644
2503,0.08218039572
2502,0.08217113465
2501,0.08217648417
2500,0.0823758021
2499,0.08205264062
2498,0.08195890486
2497,0.08237282932
2496,0.08203581721
2495,0.08213144541
2494,0.08193323761
2493,0.08239717782
2492,0.08220053464
2491,0.08243632317
2490,0.08267884701
2489,0.08241373301
2488,0.08250402659
2487,0.08258470148
2486,0.08255329728
2485,0.08276165277
2484,0.08292561769
2483,0.08270988613
2482,0.08271223307
2481,0.08265095204
2480,0.08257649839
2479,0.08281126618
2478,0.08280234039
2477,0.0829911381
2476,0.08275009692
2475,0.08288707584
2474,0.08286067098
2473,0.08297562599
2472,0.08340936899
2471,0.08328219503
2470,0.08337605745
2469,0.08293050528
2468,0.08310358971
2467,0.08358703554
2466,0.08323456347
2465,0.08312743902
2464,0.08369345963
2463,0.0834018141
2462,0.08340868354
2461,0.0836552605
2460,0.08356253058
2459,0.08348745108
2458,0.08354329318
2457,0.08365677297
2456,0.0835551247
2455,0.08388138562
2454,0.08405984193
2453,0.08367594332
2452,0.08390346169
2451,0.08406063169
2450,0.08393634111
2449,0.08395738155
2448,0.0839336738
2447,0.0841666311
2446,0.08427429944
2445,0.08434200287
2444,0.08427847922
2443,0.08408858627
2442,0.08455197513
2441,0.08431804925
2440,0.08428159356
2439,0.08441826701
2438,0.08454228938
2437,0.08441537619
2436,0.08442798257
2435,0.0848756209
2434,0.08462507278
2433,0.08463334292
2432,0.08499935269
2431,0.08469880372
2430,0.08485537767
2429,0.08497133851
2428,0.08495946974
2427,0.08494052291
2426,0.08514567465
2425,0.08533810824
2424,0.08504525572
2423,0.08524454385
2422,0.08526958525
2421,0.08499328047
2420,0.0855172649
2419,0.08535292
2418,0.08513358235
2417,0.08555171639
2416,0.08568636328
2415,0.08542872965
2414,0.08560848981
2413,0.08577570319
2412,0.08546572924
2411,0.08570342511
2410,0.08604067564
2409,0.08572369814
2408,0.08588442951
2407,0.08617570251
2406,0.08583345264
2405,0.08607949317
2404,0.08614928275
2403,0.0861164853
2402,0.08616449684
2401,0.08640225977
2400,0.0861589089
2399,0.08631616831
2398,0.08657281101
2397,0.08647613972
2396,0.08646252751
2395,0.08687981963
2394,0.08671656996
2393,0.08666252345
2392,0.08702525496
2391,0.08690852672
2390,0.08666647226
2389,0.08729197085
2388,0.08720418811
2387,0.08695416152
2386,0.08723757416
2385,0.08738806844
2384,0.08724115044
2383,0.08751142025
2382,0.0875916332
2381,0.08750268072
2380,0.08763673156
2379,0.08790579438
2378,0.08769752085
2377,0.08768820763
2376,0.08796195686
2375,0.08801511675
2374,0.08808984607
2373,0.08827780932
2372,0.08842105418
2371,0.08823645115
2370,0.08844764531
2369,0.0884950906
2368,0.08863900602
2367,0.08846763521
2366,0.08870276064
2365,0.08894528449
2364,0.08877518773
2363,0.08885160089
2362,0.08919178694
2361,0.089168109
2360,0.08901270479
2359,0.08930770308
2358,0.08964397758
2357,0.08934541047
2356,0.08947001398
2355,0.08977933228
2354,0.08968028426
2353,0.0897424072
2352,0.09003325552
2351,0.09001029283
2350,0.09002786875
2349,0.09019909054
2348,0.0903365612
2347,0.09041401744
2346,0.09030717611
2345,0.09042922407
2344,0.09077057987
2343,0.09065708518
2342,0.09062805772
2341,0.09099300206
2340,0.09090267867
2339,0.09091161937
2338,0.09117987007
2337,0.09136323631
2336,0.09119682759
2335,0.09137515724
2334,0.09153418988
2333,0.09156154841
2332,0.09156353027
2331,0.09177810699
2330,0.09199608862
2329,0.09212023765
2328,0.09205102175
2327,0.09224903584
2326,0.09247910231
2325,0.09209392965
2324,0.09242161363
2323,0.09280608594
2322,0.09255819023
2321,0.09281682223
2320,0.09290657938
2319,0.09307284653
2318,0.09314389527
2317,0.09320625663
2316,0.09350658953
2315,0.09376700968
2314,0.09345445782
2313,0.0935902968
2312,0.09403291345
2311,0.09395021945
2310,0.09387823194
2309,0.09416588396
2308,0.09448561072
2307,0.09438899159
2306,0.09437695891
2305,0.09455550462
2304,0.09501344711
2303,0.09497252852
2302,0.09486005455
2301,0.09506554157
2300,0.09539283067
2299,0.095311068
2298,0.09547354281
2297,0.09548786283
2296,0.09562121332
2295,0.09582082927
2294,0.0957891345
2293,0.09600836784
2292,0.09618011862
2291,0.09639877081
2290,0.09635840356
2289,0.09692942351
2288,0.09669863433
2287,0.09687186033
2286,0.09666529298
2285,0.09697148949
2284,0.09750394523
2283,0.09745330364
2282,0.09729118645
2281,0.097713314
2280,0.09788895398
2279,0.0976286158
2278,0.09810817242
2277,0.09779309481
2276,0.09848101437
2275,0.09847006947
2274,0.0981797576
2273,0.0986853987
2272,0.09915870428
2271,0.09892891347
2270,0.09898447245
2269,0.09908624738
2268,0.09977019578
2267,0.09989974648
2266,0.0997819528
2265,0.0999359116
2264,0.09998834878
2263,0.1001250371
2262,0.1005275175
2261,0.1002324
2260,0.1004937142
2259,0.1010182947
2258,0.1010935903
2257,0.1012145206
2256,0.1010581106
2255,0.1013349965
2254,0.1019634008
2253,0.1015779749
2252,0.1017609462
2251,0.1020126715
2250,0.1023123488
2249,0.1023710966
2248,0.1024427265
2247,0.1026580632
2246,0.1026484594
2245,0.1032127067
2244,0.1033680588
2243,0.1033178791
2242,0.1033810303
2241,0.1035402864
2240,0.1040379629
2239,0.103974022
2238,0.1039232165
2237,0.1044533402
2236,0.1045143828
2235,0.1049082279
2234,0.1046165079
2233,0.1050863415
2232,0.1053087637
2231,0.1055861935
2230,0.1055261493
2229,0.1056450903
2228,0.1058408469
2227,0.1061443314
2226,0.1065769717
2225,0.1064585447
2224,0.1064117104
2223,0.1068856418
2222,0.1070586368
2221,0.1074697822
2220,0.1074920967
2219,0.1077184752
2218,0.1079504862
2217,0.1080722734
2216,0.1082297042
2215,0.108503595
2214,0.1085273176
2213,0.1089543626
2212,0.1092997193
2211,0.1096796021
2210,0.1096906289
2209,0.1096736342
2208,0.1101050079
2207,0.1102719158
2206,0.1106726602
2205,0.1108772457
2204,0.1107912064
2203,0.1111704931
2202,0.1116060019
2201,0.1116320416
2200,0.1116260216
2199,0.1116737202
2198,0.1120413765
2197,0.112275973
2196,0.1123877913
2195,0.1126734018
2194,0.1126949787
2193,0.1128002852
2192,0.1130361632
2191,0.1132436469
2190,0.1137080789
2189,0.1139028296
2188,0.1139203981
2187,0.1138908863
2186,0.11419072
2185,0.114791356
2184,0.114761889
2183,0.1150029525
2182,0.1149420291
2181,0.115110673
2180,0.1156370714
2179,0.1158317402
2178,0.1160805002
2177,0.1164972335
2176,0.1162344664
2175,0.1166911721
2174,0.1168732345
2173,0.1174133718
2172,0.1175611615
2171,0.1177192852
2170,0.1179269105
2169,0.118106164
2168,0.1183314174
2167,0.1186917946
2166,0.1189948618
2165,0.1192382872
2164,0.1194067076
2163,0.1193988323
2162,0.1197486743
2161,0.119976826
2160,0.120334439
2159,0.1206646338
2158,0.1207983494
2157,0.1211225316
2156,0.1212568358
2155,0.1216668561
2154,0.1217851862
2153,0.1221808568
2152,0.1223384738
2151,0.1225176677
2150,0.1225547418
2149,0.1230629906
2148,0.1233253852
2147,0.1234790459
2146,0.1238300279
2145,0.1240490302
2144,0.1242183894
2143,0.1244563833
2142,0.1248733327
2141,0.1252202243
2140,0.1252499223
2139,0.1257228851
2138,0.1259393245
2137,0.1260027736
2136,0.1262886971
2135,0.1267652512
2134,0.1270494908
2133,0.1271696091
2132,0.1275867075
2131,0.1277201772
2130,0.1280239522
2129,0.128126204
2128,0.1285884529
2127,0.1289279461
2126,0.1290870905
2125,0.1294291019
2124,0.129719764
2123,0.1300448328
2122,0.130243212
2121,0.1305899471
2120,0.1309073418
2119,0.1311031729
2118,0.1314516366
2117,0.131881997
2116,0.1321265697
2115,0.132260859
2114,0.132780388
2113,0.1329575479
2112,0.1332880855
2111,0.1336078197
2110,0.1338747591
2109,0.1340463758
2108,0.1346426606
2107,0.1349405348
2106,0.1351139098
2105,0.1354522854
2104,0.1357619464
2103,0.1359477639
2102,0.1363704652
2101,0.1368929893
2100,0.1369325221
2099,0.1375134885
2098,0.137732923
2097,0.1380574405
2096,0.138401255
2095,0.1386095732
2094,0.1389775574
2093,0.1394061297
2092,0.1397892088
2091,0.1401477605
2090,0.1403459013
2089,0.1408170313
2088,0.140999794
2087,0.1416101456
2086,0.1419747621
2085,0.1420678496
2084,0.142489627
2083,0.1430018693
2082,0.1433193684
2081,0.1437248886
2080,0.1439678967
2079,0.1443618536
2078,0.1447144896
2077,0.144996196
2076,0.1454120427
2075,0.1456458569
2074,0.145996958
2073,0.146488145
2072,0.1468277723
2071,0.1473589689
2070,0.1475157142
2069,0.147964105
2068,0.148379162
2067,0.1488148123
2066,0.1491951197
2065,0.1495214254
2064,0.1499424279
2063,0.1501684934
2062,0.1506717205
2061,0.1511244774
2060,0.1513970941
2059,0.1518006176
2058,0.1521121264
2057,0.1525266021
2056,0.1529108435
2055,0.1534342766
2054,0.1536846012
2053,0.1542209238
2052,0.1545182168
2051,0.1549379826
2050,0.1554750502
2049,0.1556174159
2048,0.1562942713
2047,0.1564373821
2046,0.1569086909
2045,0.157372579
2044,0.157658115
2043,0.1580967754
2042,0.1586476564
2041,0.1591554582
2040,0.1593182683
2039,0.1598337442
2038,0.1601643562
2037,0.1606568098
2036,0.1609835774
2035,0.1613908559
2034,0.1618135273
2033,0.1621854454
2032,0.1626929939
2031,0.1631793678
2030,0.1634795219
2029,0.1638838649
2028,0.164273113
2027,0.164601028
2026,0.1650929451
2025,0.1654101312
2024,0.1659719944
2023,0.1661714613
2022,0.166612044
2021,0.1671616137
2020,0.1674206257
2019,0.1679767221
2018,0.1682212949
2017,0.1686545461
2016,0.1692061424
2015,0.169527024
2014,0.1698948443
2013,0.1703210473
2012,0.1706947982
2011,0.1711720079
2010,0.1715535671
2009,0.171867609
2008,0.1723636389
2007,0.1726111621
2006,0.1731536537
2005,0.1735094786
2004,0.1739542037
2003,0.1742236763
2002,0.1748353988
2001,0.1751272678
2000,0.1755610853
1999,0.1759440303
1998,0.1763493866
1997,0.1769107282
1996,0.1770674884
1995,0.1775064915
1994,0.177950114
1993,0.1784855872
1992,0.1788536906
1991,0.1790450066
1990,0.1794386655
1989,0.17995736
1988,0.1801817864
1987,0.1806320697
1986,0.1809320152
1985,0.1812479347
1984,0.18177706
1983,0.1821483225
1982,0.1825134009
1981,0.1828243136
1980,0.1831273586
1979,0.183605805
1978,0.1839509904
1977,0.1843429059
1976,0.1846664995
1975,0.1851297915
1974,0.1854201704
1973,0.1857984513
1972,0.1862125993
1971,0.1865567118
1970,0.1868674457
1969,0.1872217655
1968,0.1875074506
1967,0.1876904964
1966,0.1882869154
1965,0.1887338609
1964,0.1889615059
1963,0.1893357933
1962,0.1895610243
1961,0.1901913434
1960,0.1904417872
1959,0.1907622814
1958,0.1910494268
1957,0.191340372
1956,0.1917767376
1955,0.1921001226
1954,0.1925446838
1953,0.1928045154
1952,0.193136096
1951,0.1935196668
1950,0.1938914657
1949,0.1942710429
1948,0.1945407838
1947,0.1948670894
1946,0.1952803582
1945,0.1956943721
1944,0.1959266663
1943,0.196238637
1942,0.1966099739
1941,0.1969636679
1940,0.1973408014
1939,0.1977542639
1938,0.198066324
1937,0.1984863728
1936,0.1988888532
1935,0.1990148723
1934,0.1995122433
1933,0.1998911947
1932,0.2000991553
1931,0.200505361
1930,0.2008207142
1929,0.2014116645
1928,0.2017247528
1927,0.2020520419
1926,0.2023824304
1925,0.2025084347
1924,0.2032586038
1923,0.2035333216
1922,0.2035438269
1921,0.2039084733
1920,0.2049380392
1919,0.2051334977
1918,0.2052174062
1917,0.2055440098
1916,0.2059987187
1915,0.206367299
1914,0.2068753541
1913,0.2070855647
1912,0.2074858248
1911,0.2078570575
1910,0.2084108442
1909,0.2087000608
1908,0.2086963356
1907,0.208897382
1906,0.2099978328
1905,0.2103810459
1904,0.2103356719
1903,0.2109092176
1902,0.2110739499
1901,0.2112088948
1900,0.2121071219
1899,0.2124775499
1898,0.2127553821
1897,0.2131432742
1896,0.213197574
1895,0.2135532349
1894,0.2139319777
1893,0.2144117951
1892,0.214462176
1891,0.2149638683
1890,0.2154930532
1889,0.2157854885
1888,0.2160345316
1887,0.2163572907
1886,0.2167119533
1885,0.2169350833
1884,0.2175887972
1883,0.2177753299
1882,0.2179136127
1881,0.2183743566
1880,0.2185970247
1879,0.2187200189
1878,0.2190696001
1877,0.2195242792
1876,0.2198115885
1875,0.2198844254
1874,0.2201172709
1873,0.2205833346
1872,0.2209120244
1871,0.2212104201
1870,0.2215636075
1869,0.2216240168
1868,0.2221285254
1867,0.2225737572
1866,0.2223127335
1865,0.2224928588
1864,0.2230317742
1863,0.2231948227
1862,0.2230811417
1861,0.2231912613
1860,0.2238565087
1859,0.2241475731
1858,0.2240218073
1857,0.2243878245
1856,0.2246055156
1855,0.2244846523
1854,0.2249663919
1853,0.2254024446
1852,0.2252371907
1851,0.2251190245
1850,0.2252342254
1849,0.2252527177
1848,0.2258744836
1847,0.2261415869
1846,0.2259711623
1845,0.2258794904
1844,0.2258011103
1843,0.2257042974
1842,0.2262296975
1841,0.2263557911
1840,0.2262704819
1839,0.226342842
1838,0.2261707783
1837,0.2263952047
1836,0.2265974134
1835,0.2266420722
1834,0.2264220566
1833,0.2263599336
1832,0.2263144702
1831,0.2262844294
1830,0.2265097499
1829,0.2264758646
1828,0.2263213545
1827,0.2262327373
1826,0.2264652252
1825,0.2262333483
1824,0.2260173261
1823,0.2260606736
1822,0.2258244902
1821,0.2260467857
1820,0.2258892059
1819,0.2257528752
1818,0.225431934
1817,0.2253151536
1816,0.2252519727
1815,0.2251020223
1814,0.2248341739
1813,0.2246725112
1812,0.2246716022
1811,0.2245214731
1810,0.2243947238
1809,0.2241309136
1808,0.2238007784
1807,0.2237986922
1806,0.2235602736
1805,0.2234183997
1804,0.2231469899
1803,0.2228989899
1802,0.222668618
1801,0.2224874198
1800,0.2222762406
1799,0.2219450772
1798,0.2218079567
1797,0.2215829194
1796,0.2213289142
1795,0.2209367752
1794,0.2208120674
1793,0.2205359638
1792,0.2202904373
1791,0.2200459838
1790,0.2197017968
1789,0.2194801718
1788,0.2192724943
1787,0.2189245075
1786,0.2187042534
1785,0.2183291167
1784,0.2179831713
1783,0.2176799327
1782,0.2174855173
1781,0.2171652019
1780,0.2169213891
1779,0.2165919095
1778,0.2162541151
1777,0.2160081863
1776,0.215636313
1775,0.2152602524
1774,0.2150139809
1773,0.2146274596
1772,0.2144063711
1771,0.2140931487
1770,0.2136210948
1769,0.2133831978
1768,0.2130741477
1767,0.2128108591
1766,0.2124848217
1765,0.212102741
1764,0.2118049264
1763,0.211415112
1762,0.2111882716
1761,0.2107730955
1760,0.2104626596
1759,0.2101959139
1758,0.2098572701
1757,0.2095461041
1756,0.2091149688
1755,0.208932057
1754,0.2084760666
1753,0.2081604451
1752,0.2079134136
1751,0.2074885368
1750,0.2072476
1749,0.2067557424
1748,0.2064565718
1747,0.2061905265
1746,0.2058148682
1745,0.205536291
1744,0.2052049488
1743,0.2048047334
1742,0.2044395059
1741,0.2041854262
1740,0.2037794143
1739,0.2034872472
1738,0.2031397372
1737,0.2028512359
1736,0.202441588
1735,0.2021205276
1734,0.2018023282
1733,0.201323092
1732,0.2010519505
1731,0.2006968111
1730,0.2003435493
1729,0.1999973208
1728,0.1996079087
1727,0.1992404759
1726,0.198911652
1725,0.1985101998
1724,0.1981479824
1723,0.1978072971
1722,0.1973973662
1721,0.1971139014
1720,0.1967409104
1719,0.1963344812
1718,0.1958438456
1717,0.1955197752
1716,0.1951531023
1715,0.1947503835
1714,0.1942680478
1713,0.1939340681
1712,0.1936466694
1711,0.1932217926
1710,0.1928158551
1709,0.1924110949
1708,0.1919550747
1707,0.1916657239
1706,0.1912552118
1705,0.1907854974
1704,0.1904179007
1703,0.1899163574
1702,0.1895142496
1701,0.1892531812
1700,0.1887217909
1699,0.1883251816
1698,0.1878669709
1697,0.1875014752
1696,0.1871144623
1695,0.1866817921
1694,0.1862459034
1693,0.1858907491
1692,0.1854544133
1691,0.1850286722
1690,0.1846735626
1689,0.1841913611
1688,0.1837290376
1687,0.1834010482
1686,0.1828865409
1685,0.1825191081
1684,0.1820415556
1683,0.1816827357
1682,0.181193009
1681,0.1808907539
1680,0.1804025918
1679,0.1799326837
1678,0.1795607209
1677,0.1792133003
1676,0.1787692457
1675,0.1783363819
1674,0.1779352278
1673,0.17750521
1672,0.1771439761
1671,0.1767389327
1670,0.1763618886
1669,0.1759793162
1668,0.1754482836
1667,0.1751539558
1666,0.1747170985
1665,0.1743351519
1664,0.1739324927
1663,0.1734927148
1662,0.1730410606
1661,0.1726784259
1660,0.1722838432
1659,0.1718659252
1658,0.1715210229
1657,0.1710663289
1656,0.1705722511
1655,0.170235917
1654,0.169949472
1653,0.169465676
1652,0.168966189
1651,0.1687271893
1650,0.1682773978
1649,0.1677814424
1648,0.1674230248
1647,0.167077601
1646,0.1667038351
1645,0.1663035154
1644,0.1659017801
1643,0.1654768884
1642,0.1651106626
1641,0.1647399962
1640,0.1642960459
1639,0.1639229655
1638,0.1635115445
1637,0.1631278396
1636,0.1627783626
1635,0.1624234021
1634,0.1619149595
1633,0.1614854932
1632,0.1611409634
1631,0.160821721
1630,0.1604245752
1629,0.1600507647
1628,0.159747541
1627,0.1592573375
1626,0.1589507163
1625,0.1586757004
1624,0.1582594216
1623,0.1577823609
1622,0.1574270427
1621,0.1571400911
1620,0.1568337232
1619,0.1564154476
1618,0.1560929418
1617,0.1556544602
1616,0.1553057879
1615,0.1550218016
1614,0.1547450125
1613,0.1542669386
1612,0.1540240645
1611,0.1537130326
1610,0.1533195674
1609,0.1530423462
1608,0.1527023166
1607,0.1523428112
1606,0.1519760489
1605,0.1517546475
1604,0.1515054703
1603,0.1511149108
1602,0.1508544981
1601,0.1505602151
1600,0.1502241045
1599,0.149936974
1598,0.1496510655
1597,0.1494050771
1596,0.1491226107
1595,0.1488973796
1594,0.1485616714
1593,0.1483252048
1592,0.1480585188
1591,0.1477872729
1590,0.1475958079
1589,0.1473759711
1588,0.1470858306
1587,0.1467672288
1586,0.1466241926
1585,0.1463969052
1584,0.1461111754
1583,0.1458711922
1582,0.1456996948
1581,0.1455399841
1580,0.1452428102
1579,0.1450797319
1578,0.1448560357
1577,0.1446020603
1576,0.1443765461
1575,0.1442335993
1574,0.1441139281
1573,0.1438536346
1572,0.143636167
1571,0.1434177458
1570,0.1432520747
1569,0.1430750936
1568,0.1429085433
1567,0.1427299827
1566,0.1425286978
1565,0.1423949003
1564,0.1421796679
1563,0.1420500129
1562,0.1419226825
1561,0.1417240351
1560,0.1415238231
1559,0.1414203197
1558,0.1412345171
1557,0.1411042064
1556,0.1409092993
1555,0.140758574
1554,0.1406749934
1553,0.1405172348
1552,0.1403948665
1551,0.1401820481
1550,0.140116781
1549,0.1399379522
1548,0.139808923
1547,0.1396792978
1546,0.139561981
1545,0.1394589394
1544,0.1392914504
1543,0.1391536295
1542,0.139010638
1541,0.1388932168
1540,0.1388318837
1539,0.1387300193
1538,0.1385769844
1537,0.1384287328
1536,0.1383719891
1535,0.1382692605
1534,0.1381717622
1533,0.1380802542
1532,0.1379608065
1531,0.1378333569
1530,0.1377337128
1529,0.137644887
1528,0.1375711113
1527,0.1374558657
1526,0.1373481303
1525,0.1372719556
1524,0.1371877044
1523,0.1371110231
1522,0.1369980276
1521,0.1369505078
1520,0.1368354857
1519,0.1367540061
1518,0.1367407441
1517,0.1365974247
1516,0.1365101039
1515,0.1364322752
1514,0.1363914907
1513,0.1363558769
1512,0.1362478137
1511,0.1361288726
1510,0.1360828727
1509,0.1360504627
1508,0.1359990537
1507,0.1358641535
1506,0.1358167976
1505,0.1357463747
1504,0.135716334
1503,0.1356767714
1502,0.1355520189
1501,0.135510534
1500,0.1354152262
1499,0.1353947669
1498,0.135313347
1497,0.135315001
1496,0.1352164298
1495,0.1351580173
1494,0.1351520121
1493,0.1350758672
1492,0.1350062042
1491,0.1349714398
1490,0.1349227428
1489,0.1348446608
1488,0.1348616779
1487,0.134808436
1486,0.1347560287
1485,0.1346395463
1484,0.1346503496
1483,0.134626314
1482,0.1345938146
1481,0.1344964951
1480,0.1344590187
1479,0.1344690025
1478,0.1344109327
1477,0.1343898773
1476,0.1343213767
1475,0.1342562735
1474,0.1341932416
1473,0.1342508197
1472,0.1342146397
1471,0.1341314614
1470,0.1340553313
1469,0.1340521872
1468,0.1340199113
1467,0.1340495497
1466,0.133933574
1465,0.1339235306
1464,0.1338850856
1463,0.1338796914
1462,0.1338449866
1461,0.1337635815
1460,0.1337212473
1459,0.1337563992
1458,0.1336762756
1457,0.1336904019
1456,0.1336266845
1455,0.1336449981
1454,0.1335897148
1453,0.1335072368
1452,0.1334644258
1451,0.1335062087
1450,0.1335005164
1449,0.1334709823
1448,0.1334540397
1447,0.1333874613
1446,0.1333578974
1445,0.1333367527
1444,0.1332966387
1443,0.1332897693
1442,0.1332802325
1441,0.1332431585
1440,0.1331908852
1439,0.1331289411
1438,0.133180812
1437,0.1331807524
1436,0.1331713945
1435,0.1330716163
1434,0.1330238581
1433,0.1329865903
1432,0.1329752952
1431,0.1330294907
1430,0.1328762323
1429,0.1328832656
1428,0.1329376847
1427,0.132914722
1426,0.1328871995
1425,0.1328175664
1424,0.1328071356
1423,0.1327676922
1422,0.1327591985
1421,0.1327352971
1420,0.1326662898
1419,0.1326867342
1418,0.132629469
1417,0.132654056
1416,0.1325825006
1415,0.1326339394
1414,0.1325250417
1413,0.1325622648
1412,0.1324983388
1411,0.132426843
1410,0.1324304342
1409,0.1324191839
1408,0.132405594
1407,0.1323779374
1406,0.1324115694
1405,0.1323196143
1404,0.1323807091
1403,0.1322976351
1402,0.1322391927
1401,0.1323466897
1400,0.1323955208
1399,0.1322810352
1398,0.1321542263
1397,0.1321550757
1396,0.1322523206
1395,0.1322649568
1394,0.1321137697
1393,0.1321308613
1392,0.1322465986
1391,0.1321092099
1390,0.1319665611
1389,0.1319595724
1388,0.1319648325
1387,0.1319540739
1386,0.1319356263
1385,0.1318936348
1384,0.1318662763
1383,0.1319905519
1382,0.1320487857
1381,0.1320274621
1380,0.1319456547
1379,0.1318830103
1378,0.1319217682
1377,0.1319015324
1376,0.1318918169
1375,0.131787166
1374,0.1317600012
1373,0.1315813959
1372,0.1316735148
1371,0.1316692382
1370,0.1315860301
1369,0.1315591782
1368,0.1315849721
1367,0.1315625161
1366,0.1314687431
1365,0.1314533651
1364,0.1314357668
1363,0.1313602477
1362,0.1315193325
1361,0.1315935999
1360,0.1314358115
1359,0.1313752979
1358,0.1313339025
1357,0.1313061565
1356,0.1313307881
1355,0.1312736273
1354,0.1312990934
1353,0.1313329935
1352,0.1313055307
1351,0.1313122958
1350,0.1312850416
1349,0.1312697381
1348,0.1312403232
1347,0.1312450469
1346,0.1313062608
1345,0.1312673241
1344,0.1312063485
1343,0.1311888397
1342,0.1312403977
1341,0.131216228
1340,0.1312763542
1339,0.1312272996
1338,0.1312780082
1337,0.1312383562
1336,0.131245777
1335,0.1312773377
1334,0.1312775761
1333,0.131249845
1332,0.1312702
1331,0.1312825531
1330,0.1313385963
1329,0.1313238144
1328,0.1312671751
1327,0.1313070655
1326,0.1313327849
1325,0.1313460916
1324,0.1313674897
1323,0.1313559264
1322,0.1313629448
1321,0.1314261705
1320,0.1314296424
1319,0.1314460784
1318,0.1314399689
1317,0.1314488053
1316,0.1315132082
1315,0.131513238
1314,0.1315127462
1313,0.1315841377
1312,0.1315799654
1311,0.1316605359
1310,0.1316389441
1309,0.1317006052
1308,0.1316594929
1307,0.1317280531
1306,0.1317902505
1305,0.1318436563
1304,0.1318700314
1303,0.1319251359
1302,0.131889537
1301,0.1320092529
1300,0.1320013553
1299,0.1320480555
1298,0.1320725679
1297,0.132172063
1296,0.1321826577
1295,0.1323131919
1294,0.1323336661
1293,0.1323332787
1292,0.1323927492
1291,0.1324578524
1290,0.1325648725
1289,0.1326720864
1288,0.1326081455
1287,0.1326920837
1286,0.1327352673
1285,0.1328530014
1284,0.1329820901
1283,0.1330070496
1282,0.1330565959
1281,0.1331540495
1280,0.1332129687
1279,0.1332784146
1278,0.1333853155
1277,0.133420229
1276,0.133479774
1275,0.133581236
1274,0.1337274164
1273,0.1337889731
1272,0.1339236647
1271,0.1340011954
1270,0.1340384483
1269,0.1341696829
1268,0.1342950016
1267,0.134379968
1266,0.1345073879
1265,0.1345578432
1264,0.1347171664
1263,0.1348257959
1262,0.1349120289
1261,0.1350346059
1260,0.1351730376
1259,0.1353023499
1258,0.1354230493
1257,0.1355237961
1256,0.1356450021
1255,0.1358148903
1254,0.1359344125
1253,0.1360603124
1252,0.136201188
1251,0.1363182813
1250,0.1364524364
1249,0.136652559
1248,0.1367536932
1247,0.1369176507
1246,0.1370848268
1245,0.1372052729
1244,0.137344256
1243,0.1375410855
1242,0.1376878172
1241,0.1378453076
1240,0.1379672736
1239,0.1381660998
1238,0.1383311599
1237,0.1385246962
1236,0.1386554092
1235,0.1387964338
1234,0.1389904618
1233,0.1392070204
1232,0.1393719763
1231,0.139527142
1230,0.1396902204
1229,0.1399318874
1228,0.140112415
1227,0.1403701156
1226,0.1404870749
1225,0.1406665146
1224,0.1409143358
1223,0.1411103606
1222,0.141325295
1221,0.1415192783
1220,0.1417586952
1219,0.1419034153
1218,0.142193526
1217,0.1424149573
1216,0.1426339149
1215,0.1428993046
1214,0.1431140751
1213,0.1433259994
1212,0.1435764879
1211,0.1438215226
1210,0.1440872401
1209,0.1443367749
1208,0.1445904672
1207,0.1448822469
1206,0.1451013833
1205,0.1453490108
1204,0.1456380039
1203,0.1459044814
1202,0.146169275
1201,0.1464762241
1200,0.1467057616
1199,0.1468770653
1198,0.1471286118
1197,0.1474021077
1196,0.1476931572
1195,0.148026377
1194,0.1483083069
1193,0.1486527473
1192,0.1489144117
1191,0.149175629
1190,0.1495049149
1189,0.1498353183
1188,0.1501565725
1187,0.1504344046
1186,0.1507513076
1185,0.1510486454
1184,0.1514025331
1183,0.1517089009
1182,0.1520293802
1181,0.1522856504
1180,0.1526328921
1179,0.1529853493
1178,0.1532807648
1177,0.1536583453
1176,0.1539717019
1175,0.1542610675
1174,0.1545833498
1173,0.1549032927
1172,0.1552761495
1171,0.1555503011
1170,0.1559127718
1169,0.1562130749
1168,0.1565455347
1167,0.1568820179
1166,0.1571742594
1165,0.1574727893
1164,0.1578505337
1163,0.1581649929
1162,0.1584708393
1161,0.1587958634
1160,0.1591286808
1159,0.1594586074
1158,0.159834221
1157,0.1601773351
1156,0.160467118
1155,0.1608068347
1154,0.1611807048
1153,0.1615514606
1152,0.1618602723
1151,0.1622319669
1150,0.1626200378
1149,0.162957564
1148,0.1633616388
1147,0.1637800187
1146,0.1641238481
1145,0.1645353884
1144,0.1649745405
1143,0.1654233485
1142,0.1658525169
1141,0.1662629694
1140,0.1666596085
1139,0.1671554893
1138,0.1676625311
1137,0.1681029201
1136,0.1685590446
1135,0.1690457314
1134,0.1695419699
1133,0.1700897962
1132,0.1706520021
1131,0.171100229
1130,0.1715949178
1129,0.1721456796
1128,0.1726803929
1127,0.1732059568
1126,0.1738379896
1125,0.174367249
1124,0.1748654395
1123,0.1754518151
1122,0.17604734
1121,0.1766107827
1120,0.1771648377
1119,0.1777775586
1118,0.1783199161
1117,0.1788597405
1116,0.1794738472
1115,0.1800164878
1114,0.1806198657
1113,0.1811798513
1112,0.1817431897
1111,0.1822683066
1110,0.1828346401
1109,0.1833672822
1108,0.1838398576
1107,0.1844394356
1106,0.1849448532
1105,0.185384199
1104,0.1858837903
1103,0.1863706112
1102,0.1868463457
1101,0.1872943193
1100,0.1877107173
1099,0.1881418526
1098,0.1885634661
1097,0.1889761388
1096,0.1892805845
1095,0.1896279603
1094,0.1899403185
1093,0.1902695596
1092,0.1905971617
1091,0.1908876151
1090,0.1910962462
1089,0.1913488656
1088,0.1916738153
1087,0.1918790936
1086,0.1920519471
1085,0.1922176182
1084,0.1924313754
1083,0.1925961077
1082,0.1928314716
1081,0.1929965168
1080,0.1930953115
1079,0.1932971328
1078,0.1934854686
1077,0.1936429143
1076,0.1938196272
1075,0.1939481944
1074,0.1941121221
1073,0.1943297684
1072,0.194470942
1071,0.1947319359
1070,0.1949148923
1069,0.1950906664
1068,0.1953302771
1067,0.1955580264
1066,0.1958407164
1065,0.1960612983
1064,0.1963021755
1063,0.1966098249
1062,0.1969017088
1061,0.1971615106
1060,0.1974739134
1059,0.1977867186
1058,0.1980792731
1057,0.1984560341
1056,0.1988137662
1055,0.1991540641
1054,0.1995208561
1053,0.1999220401
1052,0.2002506554
1051,0.2006914169
1050,0.2010958791
1049,0.2014348358
1048,0.2017991096
1047,0.2022476047
1046,0.2025785893
1045,0.2029606402
1044,0.2033514977
1043,0.2036930472
1042,0.2040545493
1041,0.2044101208
1040,0.204707846
1039,0.204966262
1038,0.205276072
1037,0.2056298256
1036,0.2058993578
1035,0.2061164528
1034,0.2063475251
1033,0.2065531015
1032,0.206746906
1031,0.2069520056
1030,0.2070439011
1029,0.2071589977
1028,0.2072080523
1027,0.2073476464
1026,0.2074206769
1025,0.2075284421
1024,0.2074521035
1023,0.2074678391
1022,0.2074991018
1021,0.2074210942
1020,0.2073394209
1019,0.2073121816
1018,0.2072058469
1017,0.2070759684
1016,0.2069711834
1015,0.2068209648
1014,0.2066817433
1013,0.2064898461
1012,0.2063677162
1011,0.2062188238
1010,0.2059650719
1009,0.2057485431
1008,0.2055219859
1007,0.2053477615
1006,0.2051146924
1005,0.2049087435
1004,0.2046630979
1003,0.2043538541
1002,0.2041373402
1001,0.2038623542
1000,0.2035737783
999,0.2033061385
998,0.2030493319
997,0.2027655542
996,0.2024809569
995,0.2020938843
994,0.2017787993
993,0.2014261037
992,0.2010362744
991,0.20070301
990,0.2004344314
989,0.2000172138
988,0.1996662021
987,0.1992599219
986,0.198916316
985,0.1985022724
984,0.1981592178
983,0.1977835
982,0.1973803192
981,0.1970070153
980,0.196688354
979,0.1963184923
978,0.1959798783
977,0.1955579072
976,0.1952305138
975,0.1949095428
974,0.1946306527
973,0.1943079382
972,0.1939988434
971,0.1935964972
970,0.1932663023
969,0.1930306703
968,0.1926706433
967,0.1924329847
966,0.1921923161
965,0.1918254942
964,0.1915659308
963,0.1913355142
962,0.1909326464
961,0.1906767488
960,0.1904687881
959,0.1901623011
958,0.189879477
957,0.1895567775
956,0.1893082857
955,0.1890926361
954,0.1886871308
953,0.1883833706
952,0.1880585849
951,0.1877658069
950,0.1875091642
949,0.1870349646
948,0.186702475
947,0.1863368601
946,0.1861128807
945,0.1856880039
944,0.1852970868
943,0.1848352104
942,0.1843916327
941,0.1840221286
940,0.1838294715
939,0.1834303141
938,0.1830659211
937,0.1825265586
936,0.1822058856
935,0.1818668842
934,0.1815920472
933,0.1811187267
932,0.1806641221
931,0.1803929061
930,0.1799317449
929,0.1796252429
928,0.1792007089
927,0.1788233668
926,0.1783496588
925,0.17798841
924,0.1776806563
923,0.1773223132
922,0.176909402
921,0.1764016747
920,0.1760648489
919,0.1756106615
918,0.17527017
917,0.174787581
916,0.1742517054
915,0.1740480661
914,0.1735825837
913,0.173178345
912,0.1729642898
911,0.1724019349
910,0.172201857
909,0.1716382653
908,0.1711175442
907,0.1709834039
906,0.170485571
905,0.170126304
904,0.1698303372
903,0.169480443
902,0.1689885408
901,0.1686793566
900,0.1684196293
899,0.1656623632
898,0.1599952281
897,0.1672647893
896,0.175682649
895,0.1673976779
894,0.1636308432
893,0.1632798165
892,0.1668832302
891,0.1640909016
890,0.1670779437
889,0.1677632332
888,0.1645960361
887,0.1675343364
886,0.1680298001
885,0.1654614955
884,0.1655965596
883,0.1724806428
882,0.1672496945
881,0.1642363518
880,0.1621285826
879,0.1647971869
878,0.1634310931
877,0.1672979742
876,0.1630336642
875,0.164059639
874,0.1651333123
873,0.1656199843
872,0.1652124375
871,0.1661913097
870,0.1617203653
869,0.1611387581
868,0.1613364667
867,0.1609096378
866,0.1596224308
865,0.1602656543
864,0.161339581
863,0.1611271948
862,0.1617804319
861,0.1606142074
860,0.1608331501
859,0.1615148485
858,0.1609680206
857,0.1618893296
856,0.1605545878
855,0.1594511271
854,0.1608307958
853,0.16032058
852,0.160721302
851,0.1596056819
850,0.159904629
849,0.1594296098
848,0.1603126824
847,0.1604484618
846,0.1585588455
845,0.1594586819
844,0.1589622051
843,0.1603803039
842,0.1592099071
841,0.1596738696
840,0.1593548059
839,0.1589313298
838,0.1598252505
837,0.1590208113
836,0.1600853354
835,0.1586229652
834,0.1588967443
833,0.1591882855
832,0.1596718132
831,0.1590018421
830,0.1593839526
829,0.1597843319
828,0.1598445475
827,0.1594026685
826,0.1604795903
825,0.1599358618
824,0.1600804329
823,0.1603359729
822,0.1612771749
821,0.1607809365
820,0.1607867032
819,0.1608272642
818,0.1614454389
817,0.1615542471
816,0.1619298458
815,0.1617522538
814,0.1619325131
813,0.1616821587
812,0.1622673124
811,0.1626579463
810,0.1628291905
809,0.1630984396
808,0.1631745696
807,0.1634185761
806,0.1637264639
805,0.1637838632
804,0.164129734
803,0.164273873
802,0.164707765
801,0.1648008227
800,0.1648051739
799,0.1653325856
798,0.1655903012
797,0.1661924422
796,0.1658850908
795,0.1664306372
794,0.1665881872
793,0.1664494723
792,0.1671497822
791,0.1673610955
790,0.1674432307
789,0.1678299755
788,0.1679735482
787,0.1685773283
786,0.1684818119
785,0.168629542
784,0.1689616889
783,0.1689177155
782,0.1691850722
781,0.1694145203
780,0.16994147
779,0.1700045168
778,0.1706120074
777,0.1709067672
776,0.1709593385
775,0.1712719947
774,0.171926111
773,0.1719178408
772,0.1728324741
771,0.1729208082
770,0.1731519997
769,0.1738138199
768,0.1740763187
767,0.1750444025
766,0.1747814715
765,0.1756600291
764,0.1761804819
763,0.1767355055
762,0.1770969182
761,0.1778091639
760,0.1786843985
759,0.1787816286
758,0.1792476326
757,0.1799617857
756,0.1801443547
755,0.1811539233
754,0.181635648
753,0.1817080975
752,0.1821541488
751,0.1828528643
750,0.1833959967
749,0.1837937385
748,0.1839752197
747,0.1844083369
746,0.1848844141
745,0.1850771159
744,0.1852006018
743,0.1855442524
742,0.185853377
741,0.1860033125
740,0.1861305237
739,0.1863186061
738,0.1862605661
737,0.186508745
736,0.1867616475
735,0.1867347062
734,0.1867435127
733,0.18661277
732,0.1872025579
731,0.1870043874
730,0.1870090514
729,0.1872381419
728,0.1871268451
727,0.1871867031
726,0.1874121875
725,0.1875627786
724,0.1877445877
723,0.1875108778
722,0.1876704395
721,0.1880667359
720,0.1879353523
719,0.1883142292
718,0.1883327216
717,0.1884189546
716,0.1884705722
715,0.1888701916
714,0.1892403662
713,0.1892417222
712,0.1894298345
711,0.1897523105
710,0.1899632961
709,0.1903190762
708,0.1901121736
707,0.1902340204
706,0.1907485127
705,0.1905947179
704,0.1905959696
703,0.190620929
702,0.1908780485
701,0.1908908635
700,0.1907717586
699,0.190755263
698,0.1909129173
697,0.1906199306
696,0.1904682666
695,0.1903639287
694,0.190413326
693,0.190306589
692,0.1902951151
691,0.1899695098
690,0.1897386461
689,0.1896461099
688,0.1893471181
687,0.1892872006
686,0.1890842319
685,0.1890781522
684,0.1887618452
683,0.1885307878
682,0.1882762611
681,0.1882021874
680,0.1880704015
679,0.1879637241
678,0.1876433194
677,0.1875374615
676,0.1874188036
675,0.1872523576
674,0.1870377213
673,0.1868997663
672,0.1865931898
671,0.186516583
670,0.1861054599
669,0.1859879792
668,0.1858935654
667,0.1855560392
666,0.1853390485
665,0.1852355748
664,0.1850958169
663,0.1850094795
662,0.1848837435
661,0.1847315729
660,0.1846086532
659,0.1842985153
658,0.1842644364
657,0.1841200441
656,0.1840224415
655,0.1839584261
654,0.1838384718
653,0.1838673353
652,0.1834636331
651,0.1834792346
650,0.1834231615
649,0.1831866056
648,0.1830475032
647,0.1830511689
646,0.1828092486
645,0.1827826649
644,0.1825827211
643,0.1825282574
642,0.1822688282
641,0.1820211262
640,0.1819868833
639,0.1818122715
638,0.1816647202
637,0.1815940142
636,0.1814001799
635,0.1812157184
634,0.1811161339
633,0.1809432507
632,0.1807887703
631,0.1807724833
630,0.1806964278
629,0.180644542
628,0.1804565936
627,0.1804147512
626,0.1803473383
625,0.1802105457
624,0.1801627725
623,0.1799476445
622,0.1800114214
621,0.179963395
620,0.1799039245
619,0.1797836572
618,0.1797837317
617,0.1797104627
616,0.179615289
615,0.1797156781
614,0.1798245758
613,0.1799730361
612,0.1799256653
611,0.1799848229
610,0.1800359637
609,0.180271551
608,0.1803430319
607,0.1803312302
606,0.1806343049
605,0.1806182116
604,0.1810967326
603,0.1812544167
602,0.1815138757
601,0.1819221377
600,0.1818934828
599,0.1822642982
598,0.1824124455
597,0.182676062
596,0.1830073297
595,0.1830957532
594,0.1835589558
593,0.1838037819
592,0.1840406358
591,0.1840670556
590,0.1842414886
589,0.1845081598
588,0.1845529377
587,0.184821859
586,0.1849509925
585,0.1849742532
584,0.1851420403
583,0.1851079464
582,0.1851406246
581,0.1852685362
580,0.185134396
579,0.1852995157
578,0.185490638
577,0.1856900752
576,0.185811922
575,0.1860034615
574,0.1863630116
573,0.1868580133
572,0.1869397312
571,0.1872383803
570,0.1878325343
569,0.1878233254
568,0.1885700226
567,0.1891136765
566,0.1897457391
565,0.1901903003
564,0.1905611604
563,0.1911289692
562,0.1914452761
561,0.1920117438
560,0.1925258487
559,0.1928059608
558,0.1931877434
557,0.1936487705
556,0.1936810017
555,0.1938992441
554,0.1942570806
553,0.194220975
552,0.194389537
551,0.1940065324
550,0.1938852072
549,0.1940322369
548,0.1936554015
547,0.1935598403
546,0.1932764947
545,0.1931166649
544,0.1931061298
543,0.1930234432
542,0.1928750128
541,0.1929196566
540,0.1929652989
539,0.1930022389
538,0.1932949424
537,0.1934242398
536,0.1937515587
535,0.1942486614
534,0.1946433038
533,0.1948948205
532,0.1952368468
531,0.1958884746
530,0.1962097287
529,0.1965920627
528,0.1970955729
527,0.1972174346
526,0.1977532506
525,0.1981915683
524,0.1987192631
523,0.1985537112
522,0.1989171654
521,0.1987736374
520,0.1991790086
519,0.1992720068
518,0.1992447227
517,0.1991474777
516,0.1994213611
515,0.1994467229
514,0.1992497295
513,0.1992955208
512,0.1995446682
511,0.1996820718
510,0.199752301
509,0.200202629
508,0.2004598081
507,0.2006941736
506,0.2008452117
505,0.2013326436
504,0.2017900795
503,0.2022961378
502,0.2028141022
501,0.2032006979
500,0.2039885819
499,0.2045743614
498,0.2050931454
497,0.2058432251
496,0.2062264085
495,0.2067194134
494,0.2073498964
493,0.2074448764
492,0.2077350467
491,0.2075965703
490,0.2076525688
489,0.2075021863
488,0.2071663886
487,0.2070640475
486,0.2062813044
485,0.2061107159
484,0.2059809268
483,0.2055734396
482,0.2051782906
481,0.2052906156
480,0.2052384466
479,0.2050349116
478,0.2053805739
477,0.2056446671
476,0.2059540898
475,0.2064309716
474,0.2067087889
473,0.2073244452
472,0.2079791427
471,0.2087021172
470,0.2093522996
469,0.2098092586
468,0.2102535814
467,0.2104359269
466,0.2109027356
465,0.2107632607
464,0.2105720341
463,0.2104918659
462,0.210327819
461,0.2095999867
460,0.2094722986
459,0.2090180367
458,0.2087820619
457,0.2083894759
456,0.2083830237
455,0.2081662565
454,0.2082784772
453,0.2082740813
452,0.2086131275
451,0.2088239342
450,0.2090805322
449,0.2095918506
448,0.2098105997
447,0.2103779465
446,0.2106834799
445,0.211205706
444,0.2116795629
443,0.2123113126
442,0.2125540674
441,0.2128144056
440,0.21333462
439,0.2135065943
438,0.2136527598
437,0.2139117718
436,0.2141292691
435,0.2143819034
434,0.2146112621
433,0.2149413675
432,0.2152432948
431,0.2156555355
430,0.2158272266
429,0.2160503715
428,0.2169611156
427,0.2173961252
426,0.2177002281
425,0.2181751281
424,0.21859321
423,0.2190742195
422,0.2199426591
421,0.220026046
420,0.220329985
419,0.2207285762
418,0.2205259502
417,0.2205336541
416,0.2208635509
415,0.2209102958
414,0.2210110128
413,0.2213464528
412,0.2216795087
411,0.2217781544
410,0.2220885009
409,0.222896561
408,0.2233437151
407,0.2235694975
406,0.2244067937
405,0.2249508351
404,0.225809902
403,0.2266151607
402,0.2271741927
401,0.227892682
400,0.2281717509
399,0.2293247283
398,0.2292945683
397,0.2297274917
396,0.2300087065
395,0.2302758545
394,0.2305629849
393,0.2309236825
392,0.2311072052
391,0.2314430773
390,0.2317542881
389,0.2323674411
388,0.2325535715
387,0.2331873029
386,0.2340690196
385,0.2344421446
384,0.2350373268
383,0.2360108793
382,0.2362582833
381,0.2374488264
380,0.2376287878
379,0.2386548519
378,0.2396519184
377,0.2403074056
376,0.241580531
375,0.2419264615
374,0.2427874058
373,0.2438185811
372,0.2446597219
371,0.2455587834
370,0.2461964637
369,0.2469377816
368,0.2471133769
367,0.2476050556
366,0.2485052645
365,0.2484825701
364,0.2494447827
363,0.2492868006
362,0.2501021624
361,0.2509572208
360,0.2520699799
359,0.2524159849
358,0.2539102435
357,0.2551670671
356,0.2566466928
355,0.2578425407
354,0.258308053
353,0.2592982948
352,0.2603625357
351,0.2618244588
350,0.2623279095
349,0.2616220713
348,0.2621948123
347,0.2633024156
346,0.2640000284
345,0.2652108669
344,0.2657357156
343,0.2662373781
342,0.2674417794
341,0.2678916752
340,0.2689982057
339,0.270285219
338,0.2717340589
337,0.2731609643
336,0.2740078866
335,0.2756257355
334,0.2763977647
333,0.2774911225
332,0.278444171
331,0.2794309855
330,0.2810729146
329,0.2816204429
328,0.2832384408
327,0.2842542231
326,0.285569638
325,0.287258178
324,0.2876217961
323,0.2899862826
322,0.2917668521
321,0.2942432463
320,0.2946439981
319,0.2968707383
318,0.2987023592
317,0.3008395731
316,0.3023665249
315,0.3035047948
314,0.3060962856
313,0.3081967235
312,0.3101302087
311,0.3119273186
310,0.314049989
309,0.3158855736
308,0.317984283
307,0.3202347457
306,0.3226206005
305,0.3256499767
304,0.3272819221
303,0.3299362063
302,0.3322986364
301,0.3342315257
300,0.337218374
299,0.3392959833
298,0.3418905437
297,0.3438070714
296,0.3462558687
295,0.3494142294
294,0.3520786762
293,0.3546524048
292,0.3576059043
291,0.3599730432
290,0.362552762
289,0.3660378158
288,0.3684517145
287,0.3708361983
286,0.3733286858
285,0.3760071397
284,0.3782577515
283,0.3799344599
282,0.3828237057
281,0.3846309781
280,0.3869386315
279,0.3886013925
278,0.3900394142
277,0.3921356499
276,0.3928546309
275,0.3944349885
274,0.3951293528
273,0.3965925872
272,0.3967089653
271,0.396744132
270,0.3969764709
269,0.396803081
268,0.3969344795
267,0.3965166211
266,0.395863831
265,0.3955872953
264,0.3950164318
263,0.393784076
262,0.3925741613
261,0.3913622499
260,0.3899208009
259,0.3884769678
258,0.3869668543
257,0.3850292265
256,0.3837222159
255,0.3819198906
254,0.3800126314
253,0.3773915768
252,0.3749428391
251,0.3724153936
250,0.3701396883
249,0.3674580157
248,0.3634517193
247,0.3607485294
246,0.3564065099
245,0.3530092835
244,0.3488888443
243,0.3446417749
242,0.3414063156
241,0.3375994861
240,0.3334225118
239,0.3302345276
238,0.3265451491
237,0.3237335682
236,0.3203878999
235,0.3176152706
234,0.315226078
233,0.3124061823
232,0.3100709617
231,0.3085418046
230,0.3059645593
229,0.3050486147
228,0.3033125699
227,0.3028466105
226,0.3026902974
225,0.3036687374
224,0.3056584299
223,0.3094886541
222,0.3150287271
221,0.3222111762
220,0.3326056004
219,0.3450453579
218,0.3605337739
217,0.3787981868
216,0.3986251354
215,0.4213883877
214,0.4437757134
213,0.4677750468
212,0.491255641
211,0.5120381117
210,0.534071207
209,0.5495201945
208,0.5630273223
207,0.573433578
206,0.5794382095
205,0.5814347863
204,0.5813574195
203,0.5778902769
202,0.5718201399
201,0.562558949
200,0.5518963337
