Dodecane_KIT_N2_B
Wavelength (nm),Abs
2655,0.07608556747
2654,0.07565000653
2653,0.07818003744
2652,0.07796707749
2651,0.07700790465
2650,0.07806193829
2649,0.07770760357
2648,0.07770701498
2647,0.07826121151
2646,0.07938358933
2645,0.08081407845
2644,0.07834450901
2643,0.07782984525
2642,0.07859434187
2641,0.07864664495
2640,0.07796318084
2639,0.07857079804
2638,0.07843926549
2637,0.07905695587
2636,0.07705540955
2635,0.07598669827
2634,0.07723974437
2633,0.07801032811
2632,0.07603347301
2631,0.0707822293
2630,0.0778741315
2629,0.07871416211
2628,0.0756360516
2627,0.0798143819
2626,0.08026388288
2625,0.07911431789
2624,0.07756308466
2623,0.07857725024
2622,0.07808313519
2621,0.0747576952
2620,0.07683596015
2619,0.07972878218
2618,0.07498329878
2617,0.07608026266
2616,0.07822947204
2615,0.0795629099
2614,0.07831548899
2613,0.07914572209
2612,0.07874792069
2611,0.07882963866
2610,0.07801453769
2609,0.07894083112
2608,0.07980825007
2607,0.0788674131
2606,0.07781548053
2605,0.07852597535
2604,0.08020213246
2603,0.07834772766
2602,0.07739442587
2601,0.07863222063
2600,0.07951012254
2599,0.07821831107
2598,0.07786347717
2597,0.07482288778
2596,0.07177406549
2595,0.07483654469
2594,0.07958877832
2593,0.07964910567
2592,0.07987688482
2591,0.0783983916
2590,0.07666168362
2589,0.07672806084
2588,0.07802181691
2587,0.08086156845
2586,0.07999721169
2585,0.07597883046
2584,0.07833781093
2583,0.08063985407
2582,0.07903385907
2581,0.07896641642
2580,0.08024423569
2579,0.079174079
2578,0.07905500382
2577,0.08114203066
2576,0.08115526289
2575,0.08050093055
2574,0.08030128479
2573,0.08117857575
2572,0.08040936291
2571,0.07944180071
2570,0.0790515244
2569,0.07948981971
2568,0.07993210852
2567,0.07972799987
2566,0.0795923844
2565,0.07976224273
2564,0.07820799202
2563,0.07751546055
2562,0.07791947573
2561,0.08002345264
2560,0.08148041368
2559,0.08089397103
2558,0.08060032874
2557,0.08004856855
2556,0.080343768
2555,0.08077136427
2554,0.08011505753
2553,0.08006612211
2552,0.0793614313
2551,0.08028929681
2550,0.08052176982
2549,0.08024410903
2548,0.08058480918
2547,0.08033491671
2546,0.08084130287
2545,0.08085764199
2544,0.08068145812
2543,0.08032488823
2542,0.08067528903
2541,0.08034133911
2540,0.08099172264
2539,0.08094929904
2538,0.08050257713
2537,0.08042512834
2536,0.0802295655
2535,0.08010113984
2534,0.0807499513
2533,0.08025622368
2532,0.08006829768
2531,0.08043254167
2530,0.08079154044
2529,0.08118849993
2528,0.08096888661
2527,0.08136285841
2526,0.08116646856
2525,0.08120369911
2524,0.08163333684
2523,0.08168366551
2522,0.08111532778
2521,0.08184503019
2520,0.0813562721
2519,0.08157411218
2518,0.08156830072
2517,0.08135926723
2516,0.08138861507
2515,0.08165254444
2514,0.08216131479
2513,0.0816379562
2512,0.08156432956
2511,0.08176727593
2510,0.08185168356
2509,0.08140797168
2508,0.08186593652
2507,0.08166325837
2506,0.08174968511
2505,0.08177161962
2504,0.08174437284
2503,0.08231049776
2502,0.08212637901
2501,0.08223307133
2500,0.0822115764
2499,0.08197163045
2498,0.08199469745
2497,0.08236975968
2496,0.08208291233
2495,0.08209216595
2494,0.08185165375
2493,0.08243626356
2492,0.08236970007
2491,0.08235361427
2490,0.0825541392
2489,0.08236819506
2488,0.08253914863
2487,0.08276155591
2486,0.08251281828
2485,0.08277750015
2484,0.08286301792
2483,0.08269046992
2482,0.08268717676
2481,0.08262155205
2480,0.08264077455
2479,0.08256892115
2478,0.08282749355
2477,0.08283586055
2476,0.08273055404
2475,0.08278623968
2474,0.08279106021
2473,0.08292511106
2472,0.08322446793
2471,0.08314023167
2470,0.0832984373
2469,0.08287451416
2468,0.08303263038
2467,0.08344823867
2466,0.0832028687
2465,0.08301288635
2464,0.08358876407
2463,0.08332004398
2462,0.08339907974
2461,0.08349274844
2460,0.08355336636
2459,0.0834889859
2458,0.08364079148
2457,0.08348942548
2456,0.08341511339
2455,0.08386386186
2454,0.08381265402
2453,0.08367051929
2452,0.08380804211
2451,0.08408397436
2450,0.08396887779
2449,0.08392676711
2448,0.08397773653
2447,0.08399833739
2446,0.08423639834
2445,0.08430393785
2444,0.08425899595
2443,0.08402749151
2442,0.08454222232
2441,0.08431236446
2440,0.08422894776
2439,0.08454480022
2438,0.08467803895
2437,0.08435061574
2436,0.08448948711
2435,0.084858872
2434,0.08439783752
2433,0.08463139087
2432,0.08498868346
2431,0.08475043625
2430,0.08488125354
2429,0.08509542048
2428,0.08493220806
2427,0.0848184377
2426,0.08514261991
2425,0.08514265716
2424,0.08497401327
2423,0.08504217118
2422,0.08515959978
2421,0.08498009294
2420,0.08545397222
2419,0.08538181335
2418,0.08514791727
2417,0.0854992643
2416,0.08552280813
2415,0.0853087157
2414,0.08559320122
2413,0.08569075167
2412,0.08537585288
2411,0.08556057513
2410,0.08591231704
2409,0.08560366929
2408,0.08581206948
2407,0.0861781612
2406,0.085835509
2405,0.08606623858
2404,0.08628538251
2403,0.08605178446
2402,0.08606314659
2401,0.08642907441
2400,0.08620104939
2399,0.08631531894
2398,0.08654134721
2397,0.08639527857
2396,0.08639938384
2395,0.08682218194
2394,0.08683283627
2393,0.08661066741
2392,0.0869898051
2391,0.08685069531
2390,0.08670983464
2389,0.08726643026
2388,0.08716426045
2387,0.08693173528
2386,0.08719814569
2385,0.08743362129
2384,0.08727501333
2383,0.08754362166
2382,0.08762454242
2381,0.08749349415
2380,0.08763270825
2379,0.08787587285
2378,0.08769165725
2377,0.08778774738
2376,0.08789993078
2375,0.08811045438
2374,0.08794084191
2373,0.08819673955
2372,0.08844187111
2371,0.08802976459
2370,0.08834471554
2369,0.08853387088
2368,0.08863795549
2367,0.08848340809
2366,0.08854237944
2365,0.08884827048
2364,0.08873222768
2363,0.0887561664
2362,0.08915656805
2361,0.08903421462
2360,0.08907288313
2359,0.08925256878
2358,0.08956217021
2357,0.0893356204
2356,0.08931832016
2355,0.08965852112
2354,0.0895017013
2353,0.08968318254
2352,0.09000854194
2351,0.08992211521
2350,0.08997765183
2349,0.09015330672
2348,0.09024099261
2347,0.09041271359
2346,0.09018583596
2345,0.09047219902
2344,0.09075281024
2343,0.09067829698
2342,0.09062072635
2341,0.09101171046
2340,0.09088210016
2339,0.09092655033
2338,0.0912303254
2337,0.09139790386
2336,0.09127162397
2335,0.09131768346
2334,0.09151587635
2333,0.0916121453
2332,0.09166565537
2331,0.0917763114
2330,0.09197740257
2329,0.09200900793
2328,0.09199471027
2327,0.09225844592
2326,0.09247032553
2325,0.09217115492
2324,0.09234335274
2323,0.092728585
2322,0.09259336442
2321,0.0927881971
2320,0.09304814786
2319,0.09301716834
2318,0.09316355735
2317,0.09309577942
2316,0.09340521693
2315,0.09366698563
2314,0.09337569028
2313,0.0935126245
2312,0.09399402142
2311,0.09401896596
2310,0.09403253347
2309,0.09429702908
2308,0.09435283393
2307,0.09441707283
2306,0.09450948238
2305,0.09454970807
2304,0.09493416548
2303,0.09494991601
2302,0.09484463185
2301,0.09509966522
2300,0.09514816105
2299,0.09518751502
2298,0.0956062451
2297,0.09547509253
2296,0.09560430795
2295,0.09583102912
2294,0.09576896578
2293,0.09590946883
2292,0.0963639915
2291,0.09640209377
2290,0.09636774659
2289,0.09700524807
2288,0.09669113159
2287,0.09679854661
2286,0.0968009457
2285,0.09716288745
2284,0.09728486836
2283,0.09748794138
2282,0.09722676873
2281,0.09764277935
2280,0.09795553982
2279,0.09763172269
2278,0.09823168069
2277,0.09749526531
2276,0.09842032194
2275,0.09839116782
2274,0.09851037711
2273,0.09838068485
2272,0.09889536351
2271,0.09886903316
2270,0.09893414378
2269,0.09917291999
2268,0.09937583655
2267,0.09994989634
2266,0.09954811633
2265,0.09979726374
2264,0.09999020398
2263,0.1001490951
2262,0.1004272625
2261,0.1003273576
2260,0.1003799289
2259,0.1009566262
2258,0.1011793241
2257,0.1010640264
2256,0.1010089815
2255,0.1012461931
2254,0.1018218771
2253,0.1018730253
2252,0.1017324105
2251,0.1020440087
2250,0.1022050008
2249,0.102393277
2248,0.1022420749
2247,0.1023117602
2246,0.1028470024
2245,0.1031423584
2244,0.1032643244
2243,0.103142783
2242,0.1032606736
2241,0.1035732031
2240,0.1039146632
2239,0.1038001776
2238,0.1038839519
2237,0.1043069437
2236,0.1044904143
2235,0.104648985
2234,0.1047632992
2233,0.1047251821
2232,0.1052525565
2231,0.1056504026
2230,0.1055797264
2229,0.105598934
2228,0.1058174297
2227,0.1062577143
2226,0.1064241156
2225,0.1064525917
2224,0.1065585762
2223,0.1068365425
2222,0.10690137
2221,0.1074644178
2220,0.1074559912
2219,0.1075740978
2218,0.1079318672
2217,0.1082409993
2216,0.108286567
2215,0.1084749103
2214,0.1087014079
2213,0.109112449
2212,0.1091348752
2211,0.1095549539
2210,0.1096429825
2209,0.1097218543
2208,0.1098437458
2207,0.1102967486
2206,0.1105377153
2205,0.1105427891
2204,0.1108009964
2203,0.1110612676
2202,0.1113057062
2201,0.1116620004
2200,0.1115599796
2199,0.1115721986
2198,0.1117848456
2197,0.112102963
2196,0.1125078499
2195,0.112625353
2194,0.1127682999
2193,0.1129267365
2192,0.1129464135
2191,0.1131406203
2190,0.1136816144
2189,0.1137929782
2188,0.1138495356
2187,0.114005439
2186,0.1141776592
2185,0.1144486517
2184,0.1148821339
2183,0.1149541065
2182,0.1151521131
2181,0.1151025817
2180,0.1155653521
2179,0.1158241034
2178,0.1159569845
2177,0.1164136976
2176,0.1161865294
2175,0.1166869029
2174,0.1169464216
2173,0.1173245758
2172,0.1174447536
2171,0.1176413894
2170,0.1178198457
2169,0.1181202307
2168,0.1182737648
2167,0.1186548844
2166,0.1187113225
2165,0.1191328764
2164,0.1192659885
2163,0.1193761006
2162,0.119658716
2161,0.1201272607
2160,0.1202779561
2159,0.1204418913
2158,0.120700106
2157,0.1209779009
2156,0.1210392341
2155,0.1214377061
2154,0.1217248142
2153,0.1218778193
2152,0.1222429723
2151,0.1224662587
2150,0.1224977598
2149,0.1231090724
2148,0.1232909262
2147,0.1235535294
2146,0.1237215623
2145,0.1239517033
2144,0.1242166013
2143,0.1243135035
2142,0.1247933134
2141,0.1249524727
2140,0.1253694445
2139,0.1256506294
2138,0.1259191185
2137,0.1261378378
2136,0.1262685806
2135,0.1266813576
2134,0.1269765198
2133,0.1271543801
2132,0.1275227219
2131,0.1277914047
2130,0.1279744655
2129,0.1281066239
2128,0.1285443604
2127,0.1286990047
2126,0.1291473061
2125,0.1294708401
2124,0.1297445446
2123,0.1299630553
2122,0.1300985515
2121,0.1304757595
2120,0.1308497936
2119,0.1311453283
2118,0.1312882006
2117,0.1316796839
2116,0.1320396662
2115,0.1322995722
2114,0.1327303797
2113,0.1328521222
2112,0.1332007945
2111,0.1334771365
2110,0.1338436455
2109,0.1342321932
2108,0.1346403658
2107,0.1348558217
2106,0.1352526248
2105,0.1353767365
2104,0.1357854456
2103,0.1358920038
2102,0.1363587379
2101,0.1368431449
2100,0.1370724738
2099,0.1373743415
2098,0.1375410855
2097,0.1378692389
2096,0.1383922845
2095,0.1387357861
2094,0.1389388144
2093,0.1393485367
2092,0.1395740807
2091,0.1400022358
2090,0.1402619481
2089,0.1407567859
2088,0.1410187334
2087,0.1414172053
2086,0.1417916268
2085,0.1420536637
2084,0.1423114091
2083,0.143011719
2082,0.1431721598
2081,0.143580094
2080,0.1439973265
2079,0.1442347616
2078,0.144747898
2077,0.1449665129
2076,0.1453195363
2075,0.1457044333
2074,0.1459824741
2073,0.1464342922
2072,0.1468214244
2071,0.1473028958
2070,0.1474816501
2069,0.1479457319
2068,0.1484099776
2067,0.1488051862
2066,0.149058938
2065,0.1493540555
2064,0.1498953104
2063,0.1501150578
2062,0.1506974697
2061,0.1509966403
2060,0.1514861435
2059,0.151714921
2058,0.1521338373
2057,0.1526473612
2056,0.1529489756
2055,0.1533790678
2054,0.153648749
2053,0.1542502046
2052,0.1545427442
2051,0.1547864974
2050,0.1553039849
2049,0.1555984467
2048,0.1561177224
2047,0.1562697142
2046,0.1568057239
2045,0.1573218554
2044,0.1576978713
2043,0.1581557542
2042,0.1586331725
2041,0.1588749737
2040,0.1591935903
2039,0.1597049385
2038,0.1601103097
2037,0.1604570895
2036,0.1608042568
2035,0.1612208039
2034,0.1616853476
2033,0.1620823741
2032,0.1625272185
2031,0.1630583853
2030,0.1633334011
2029,0.1637000442
2028,0.1640270054
2027,0.1645482928
2026,0.1649659872
2025,0.1654191464
2024,0.1659771502
2023,0.1661481261
2022,0.1665647477
2021,0.1668899208
2020,0.167334497
2019,0.1678694934
2018,0.1682098657
2017,0.1685805023
2016,0.1690340787
2015,0.1694504619
2014,0.1698053926
2013,0.1702380329
2012,0.1707202196
2011,0.1710613519
2010,0.1715524495
2009,0.1718538404
2008,0.1722345352
2007,0.1726938337
2006,0.1730669737
2005,0.1735320091
2004,0.1738347858
2003,0.1742157042
2002,0.1746398062
2001,0.1749649942
2000,0.1754615158
1999,0.1758805662
1998,0.1763320565
1997,0.1768749058
1996,0.1769588888
1995,0.1773088872
1994,0.1777535528
1993,0.1782987565
1992,0.1787110716
1991,0.1790721714
1990,0.1793629527
1989,0.1797643006
1988,0.1800478697
1987,0.1805776507
1986,0.1807828844
1985,0.1812711209
1984,0.1817255318
1983,0.1819222867
1982,0.1823911369
1981,0.1827122867
1980,0.1830791086
1979,0.1834812611
1978,0.1837742925
1977,0.1841624081
1976,0.1846019626
1975,0.184899196
1974,0.1852929294
1973,0.1856175512
1972,0.1860901117
1971,0.1864139438
1970,0.1867965907
1969,0.1871373951
1968,0.1874155402
1967,0.1878403574
1966,0.1881954819
1965,0.1885997653
1964,0.1888234913
1963,0.1892049909
1962,0.1894605011
1961,0.1899181902
1960,0.1903096437
1959,0.1905127913
1958,0.1910333484
1957,0.191298157
1956,0.1916856915
1955,0.1919320375
1954,0.1922501028
1953,0.1925602108
1952,0.1930691451
1951,0.1933586597
1950,0.1937377751
1949,0.1940922886
1948,0.1944273263
1947,0.1946942806
1946,0.1951191872
1945,0.1954388618
1944,0.1957087517
1943,0.1961030662
1942,0.1964326501
1941,0.1968085617
1940,0.1972199678
1939,0.1976742744
1938,0.1980363131
1937,0.1982565373
1936,0.198798418
1935,0.1989326477
1934,0.1994297653
1933,0.1997516453
1932,0.2000628859
1931,0.2004799396
1930,0.2006834447
1929,0.2011902779
1928,0.2015605271
1927,0.2019711733
1926,0.2022419125
1925,0.2025227994
1924,0.2030820996
1923,0.2034021467
1922,0.2034783959
1921,0.2039139718
1920,0.2047572881
1919,0.2051755935
1918,0.2050556988
1917,0.2055596411
1916,0.2059700638
1915,0.2062110454
1914,0.2068119943
1913,0.207130596
1912,0.2072871476
1911,0.2077764273
1910,0.2082513422
1909,0.2085049748
1908,0.2085074335
1907,0.2087194771
1906,0.2099428028
1905,0.2101788223
1904,0.2102339715
1903,0.2107578367
1902,0.2110867798
1901,0.2109463662
1900,0.2120290101
1899,0.2123604119
1898,0.21263735
1897,0.2128508836
1896,0.2131047547
1895,0.2133716941
1894,0.2138316631
1893,0.2143132091
1892,0.2143779099
1891,0.214831233
1890,0.215381667
1889,0.2156968266
1888,0.2158953547
1887,0.216260463
1886,0.2166215032
1885,0.2168847173
1884,0.2173062414
1883,0.2175916284
1882,0.2178266644
1881,0.2181737572
1880,0.2183713168
1879,0.2184377909
1878,0.2188501656
1877,0.219305262
1876,0.2197417766
1875,0.2196957022
1874,0.2198745459
1873,0.2203305513
1872,0.2206488997
1871,0.2209578305
1870,0.2213968188
1869,0.2212417424
1868,0.2220654041
1867,0.2224687934
1866,0.2221709639
1865,0.2224937677
1864,0.2227867693
1863,0.2230046093
1862,0.2229060382
1861,0.2229129076
1860,0.2236219049
1859,0.2240434438
1858,0.2239462435
1857,0.2243138105
1856,0.2244199961
1855,0.2242089063
1854,0.2247681916
1853,0.2253551185
1852,0.2249585241
1851,0.2250017077
1850,0.2249443531
1849,0.2249251455
1848,0.2257365137
1847,0.2259260863
1846,0.2257088721
1845,0.2256798297
1844,0.2255852669
1843,0.2255739123
1842,0.2259771228
1841,0.2262147516
1840,0.2263111025
1839,0.2261537015
1838,0.226074785
1837,0.2261976153
1836,0.2263482511
1835,0.226560995
1834,0.2263460308
1833,0.2261525989
1832,0.226118058
1831,0.2263002545
1830,0.2263044864
1829,0.2263662964
1828,0.2262159586
1827,0.2260141075
1826,0.2262934148
1825,0.2259968668
1824,0.2258692086
1823,0.2258795351
1822,0.2257288098
1821,0.2258789688
1820,0.2257579714
1819,0.225533396
1818,0.2253032029
1817,0.2251579314
1816,0.2250506133
1815,0.2250308245
1814,0.2247768342
1813,0.2246774286
1812,0.2245984375
1811,0.2243474275
1810,0.2241703868
1809,0.2240258902
1808,0.2237026691
1807,0.2236285806
1806,0.2234476209
1805,0.2233209461
1804,0.2229055613
1803,0.2227433622
1802,0.2225227207
1801,0.2224543691
1800,0.2222647965
1799,0.2218824774
1798,0.2217034101
1797,0.2214425504
1796,0.2212273031
1795,0.2208341956
1794,0.2207339555
1793,0.2203611583
1792,0.2203121036
1791,0.2198774666
1790,0.2195953876
1789,0.2193905413
1788,0.2191957384
1787,0.2189271748
1786,0.2185452133
1785,0.2183102965
1784,0.2180067003
1783,0.2176457047
1782,0.2174410075
1781,0.2170998156
1780,0.2167224437
1779,0.2164935917
1778,0.216175288
1777,0.2159063816
1776,0.2155825943
1775,0.2151709795
1774,0.2149677277
1773,0.2145283073
1772,0.2142768204
1771,0.2140147984
1770,0.2136007696
1769,0.2133203745
1768,0.212918967
1767,0.2127435505
1766,0.2123893201
1765,0.2120391726
1764,0.2117187232
1763,0.2113540024
1762,0.2111111134
1761,0.2106927335
1760,0.2103068978
1759,0.2100803852
1758,0.2097402662
1757,0.2094407678
1756,0.2091020346
1755,0.2087889761
1754,0.2084479481
1753,0.208085835
1752,0.2078018636
1751,0.2074421197
1750,0.2071135044
1749,0.2067085803
1748,0.2064285576
1747,0.2060983181
1746,0.2057991922
1745,0.2053996325
1744,0.2051398903
1743,0.2046883106
1742,0.2044692785
1741,0.2039888799
1740,0.203754425
1739,0.2034117877
1738,0.203047514
1737,0.2027942836
1736,0.2023617327
1735,0.2020653188
1734,0.201659888
1733,0.201279223
1732,0.2009917498
1731,0.2006889135
1730,0.2002278715
1729,0.1998900026
1728,0.1995111406
1727,0.1991677433
1726,0.198785454
1725,0.1984156817
1724,0.1980846673
1723,0.1976807714
1722,0.1973194778
1721,0.1970380694
1720,0.1966830194
1719,0.1962084174
1718,0.1958156824
1717,0.1954457164
1716,0.1950611323
1715,0.1947992593
1714,0.1942713261
1713,0.1939445883
1712,0.1936203986
1711,0.1931604892
1710,0.1927648485
1709,0.1923059672
1708,0.1919720769
1707,0.1915924102
1706,0.1911832392
1705,0.190724656
1704,0.1903275847
1703,0.1898872554
1702,0.1895442009
1701,0.1890661865
1700,0.1886713356
1699,0.1883399487
1698,0.187856555
1697,0.1874908209
1696,0.1870819181
1695,0.1866413355
1694,0.1861950606
1693,0.1858528107
1692,0.1853620261
1691,0.1849574447
1690,0.184626624
1689,0.1840822697
1688,0.1836780608
1687,0.1833866388
1686,0.1828167439
1685,0.1824273765
1684,0.1820552498
1683,0.1816031784
1682,0.1811846495
1681,0.1808426231
1680,0.180328995
1679,0.179944858
1678,0.1794748306
1677,0.1790902466
1676,0.1787106097
1675,0.1782639027
1674,0.1778903008
1673,0.1774769723
1672,0.1771212816
1671,0.1767446399
1670,0.1763438582
1669,0.1758662462
1668,0.1754399538
1667,0.1751337349
1666,0.174738735
1665,0.1743196845
1664,0.1738454849
1663,0.1734524965
1662,0.1730155349
1661,0.1726274192
1660,0.172241956
1659,0.1718155891
1658,0.1714760661
1657,0.1710289866
1656,0.170572564
1655,0.1702715456
1654,0.1698869467
1653,0.169397071
1652,0.1689679921
1651,0.1686708033
1650,0.1682231724
1649,0.1677956581
1648,0.1673717499
1647,0.1670278162
1646,0.1666427702
1645,0.1663002819
1644,0.1658985913
1643,0.1654372513
1642,0.1650360525
1641,0.1646978855
1640,0.164238885
1639,0.1638320237
1638,0.1634927988
1637,0.1630689055
1636,0.1627219915
1635,0.1623594016
1634,0.1619422436
1633,0.16148974
1632,0.1611098647
1631,0.1607628316
1630,0.1604541987
1629,0.1600645781
1628,0.1597592384
1627,0.159249723
1626,0.1589363366
1625,0.1586297899
1624,0.1582315713
1623,0.1577939391
1622,0.1574653089
1621,0.1571193933
1620,0.1567807943
1619,0.1563628316
1618,0.1560235023
1617,0.155680716
1616,0.1553148627
1615,0.1549921781
1614,0.1546666473
1613,0.1542503536
1612,0.1539761573
1611,0.1536593735
1610,0.1533681601
1609,0.1529635191
1608,0.1527286619
1607,0.152322188
1606,0.1519602537
1605,0.1517634243
1604,0.1514985412
1603,0.1511515826
1602,0.1507935375
1601,0.1505076885
1600,0.1502527148
1599,0.1499659717
1598,0.1496484429
1597,0.1493605226
1596,0.149142459
1595,0.1488561928
1594,0.1485796273
1593,0.1483323127
1592,0.1480704546
1591,0.1477984339
1590,0.147530511
1589,0.1473867744
1588,0.1470919698
1587,0.146780476
1586,0.1466116756
1585,0.1463824362
1584,0.146152094
1583,0.1459079981
1582,0.1457602978
1581,0.1455414295
1580,0.1452321112
1579,0.1450693607
1578,0.1448242068
1577,0.1446055621
1576,0.144420445
1575,0.1442046613
1574,0.1440854371
1573,0.1437652856
1572,0.1436221153
1571,0.1434119493
1570,0.1433103979
1569,0.143041268
1568,0.1428534091
1567,0.1427142322
1566,0.1425745934
1565,0.142368421
1564,0.1421454102
1563,0.1420069635
1562,0.1418850273
1561,0.1417300254
1560,0.1415380985
1559,0.1414114982
1558,0.1411921978
1557,0.1410546899
1556,0.1409123093
1555,0.1407063454
1554,0.1406106502
1553,0.140499562
1552,0.140308395
1551,0.1401970536
1550,0.1400671005
1549,0.1399302036
1548,0.1398344338
1547,0.1396638304
1546,0.1395430565
1545,0.1394236386
1544,0.1393141001
1543,0.1391741633
1542,0.1390258223
1541,0.1388529092
1540,0.1387457252
1539,0.1386977285
1538,0.1385582834
1537,0.1384673715
1536,0.138370961
1535,0.1382492632
1534,0.1381617934
1533,0.1380737722
1532,0.1379679143
1531,0.1378352046
1530,0.1377271265
1529,0.1376636922
1528,0.1375519335
1527,0.1374852359
1526,0.1373806596
1525,0.1372745186
1524,0.1371545494
1523,0.1371252239
1522,0.1369805187
1521,0.1369570047
1520,0.1368299127
1519,0.1367182583
1518,0.1367165595
1517,0.1365757883
1516,0.1365051866
1515,0.1364425123
1514,0.1363662928
1513,0.1363085657
1512,0.1362366527
1511,0.1361185312
1510,0.1360725909
1509,0.1360289007
1508,0.135999158
1507,0.135905847
1506,0.135777548
1505,0.1356945783
1504,0.1356826127
1503,0.1356638968
1502,0.1355741918
1501,0.1354532838
1500,0.1353785992
1499,0.1353543848
1498,0.1353251934
1497,0.1352831572
1496,0.1352192611
1495,0.1350948066
1494,0.1351325661
1493,0.1350998878
1492,0.1350378841
1491,0.1349134445
1490,0.1349001974
1489,0.134838894
1488,0.1348214298
1487,0.1348047853
1486,0.1347670555
1485,0.1346586049
1484,0.1346488297
1483,0.134615615
1482,0.1345741153
1481,0.1345093995
1480,0.1344420463
1479,0.1344359815
1478,0.1343751401
1477,0.1343464553
1476,0.1342925727
1475,0.1342362911
1474,0.1341928095
1473,0.1342160404
1472,0.1341897845
1471,0.1340620667
1470,0.1340860277
1469,0.134044677
1468,0.1340162754
1467,0.13400729
1466,0.1339511573
1465,0.1339055896
1464,0.1338726431
1463,0.1338420361
1462,0.1338213533
1461,0.1337743253
1460,0.133754462
1459,0.1337684095
1458,0.1337299794
1457,0.1336701512
1456,0.1336411685
1455,0.1336287707
1454,0.133611694
1453,0.1335340887
1452,0.1334613264
1451,0.1334963888
1450,0.1334595382
1449,0.1334495693
1448,0.133437708
1447,0.1333683133
1446,0.1333634257
1445,0.1333702058
1444,0.1333017051
1443,0.1332762986
1442,0.1332757622
1441,0.1332231015
1440,0.1331671327
1439,0.1331394166
1438,0.1331721991
1437,0.1331572831
1436,0.1330853552
1435,0.1330360174
1434,0.1330193281
1433,0.1330440789
1432,0.1330041736
1431,0.1330039948
1430,0.1329322308
1429,0.1328773499
1428,0.1329439729
1427,0.132891342
1426,0.1328509897
1425,0.1328017116
1424,0.1327939928
1423,0.1327770501
1422,0.1327277422
1421,0.1327162236
1420,0.1326796412
1419,0.132629782
1418,0.1326554716
1417,0.1326245517
1416,0.1326115578
1415,0.1326101422
1414,0.1325180829
1413,0.1325397193
1412,0.1325095147
1411,0.1324288398
1410,0.1323805302
1409,0.1324054301
1408,0.132417053
1407,0.1324070394
1406,0.1324411333
1405,0.1323673278
1404,0.1323527992
1403,0.1322840601
1402,0.1321993917
1401,0.1323435307
1400,0.1324535012
1399,0.132294029
1398,0.1321151406
1397,0.1321107149
1396,0.1322771013
1395,0.1322921365
1394,0.1321127564
1393,0.1320575625
1392,0.1321523041
1391,0.1320670992
1390,0.1319429576
1389,0.1319407076
1388,0.1319577545
1387,0.1319362521
1386,0.1319172829
1385,0.131896615
1384,0.1319153458
1383,0.132005915
1382,0.132062614
1381,0.1319909096
1380,0.1319595128
1379,0.1318682432
1378,0.1319262832
1377,0.1319358647
1376,0.1318727285
1375,0.1317719966
1374,0.1317444742
1373,0.1315899938
1372,0.1316816807
1371,0.1316411197
1370,0.1315460354
1369,0.1315519959
1368,0.1315612197
1367,0.1315294951
1366,0.1314907819
1365,0.1314426363
1364,0.1314596683
1363,0.1313538998
1362,0.1315220296
1361,0.1315854639
1360,0.1314429939
1359,0.131367147
1358,0.1313466579
1357,0.1313192248
1356,0.1313175112
1355,0.1313050091
1354,0.1312738359
1353,0.1313312799
1352,0.1312828064
1351,0.1312846541
1350,0.1312980354
1349,0.1312649399
1348,0.1312583536
1347,0.1312472224
1346,0.1312324107
1345,0.13123478
1344,0.1312561482
1343,0.1311867088
1342,0.1312368214
1341,0.1312275082
1340,0.1312404573
1339,0.1312348545
1338,0.1312519461
1337,0.1312738061
1336,0.1312837154
1335,0.1312643439
1334,0.131262809
1333,0.131243512
1332,0.1312725097
1331,0.1312872469
1330,0.1313046217
1329,0.131317094
1328,0.1312781423
1327,0.1312919706
1326,0.1313201785
1325,0.13135387
1324,0.1313290745
1323,0.1313308924
1322,0.131361261
1321,0.1313865781
1320,0.1314463913
1319,0.1314527988
1318,0.1313911378
1317,0.131445691
1316,0.1315087527
1315,0.1315579861
1314,0.1314959228
1313,0.131578669
1312,0.1315565556
1311,0.1316105276
1310,0.1316526532
1309,0.1317061484
1308,0.1316777468
1307,0.131717369
1306,0.1317720264
1305,0.1318119913
1304,0.1318873614
1303,0.1319019496
1302,0.1318562478
1301,0.1319695115
1300,0.1320324689
1299,0.1320712417
1298,0.1321236342
1297,0.1321400851
1296,0.1321482658
1295,0.1322479695
1294,0.1322932839
1293,0.1323334426
1292,0.1323834807
1291,0.1324337274
1290,0.1325131655
1289,0.1326199174
1288,0.1325892806
1287,0.1327084154
1286,0.1327371299
1285,0.1328319162
1284,0.1329173297
1283,0.1329665482
1282,0.1330549121
1281,0.1331406832
1280,0.1331918687
1279,0.1332701743
1278,0.1333390027
1277,0.1334260702
1276,0.1334921271
1275,0.1336010993
1274,0.1337238103
1273,0.1337364316
1272,0.1338882893
1271,0.1340037286
1270,0.1340631545
1269,0.134184733
1268,0.1342878491
1267,0.1343706548
1266,0.134482488
1265,0.1345646232
1264,0.1347364038
1263,0.1348265707
1262,0.1349008381
1261,0.1350436062
1260,0.1351881921
1259,0.1352843195
1258,0.1354465187
1257,0.1355465353
1256,0.1356699467
1255,0.1357795
1254,0.135884285
1253,0.1360869706
1252,0.1362351924
1251,0.1363764554
1250,0.1364461631
1249,0.1365880668
1248,0.1367481202
1247,0.1369324178
1246,0.1370730102
1245,0.1372446567
1244,0.1373476386
1243,0.1375515312
1242,0.1376654953
1241,0.1378246397
1240,0.1379759163
1239,0.1381403357
1238,0.138303712
1237,0.1384780556
1236,0.1386429518
1235,0.1387858093
1234,0.1390087157
1233,0.139193967
1232,0.1393413991
1231,0.1395315975
1230,0.1397502869
1229,0.1399212778
1228,0.1401108056
1227,0.1403074712
1226,0.1404689848
1225,0.1406601816
1224,0.1409123093
1223,0.1411070377
1222,0.1413333118
1221,0.1414778233
1220,0.1417372376
1219,0.1419303566
1218,0.1421957165
1217,0.1424052864
1216,0.1426401585
1215,0.1428388655
1214,0.1431050003
1213,0.1433510482
1212,0.1435584128
1211,0.1438459903
1210,0.1440322399
1209,0.144306466
1208,0.1446104646
1207,0.1448613107
1206,0.1450827718
1205,0.1453754902
1204,0.1456366628
1203,0.1458682269
1202,0.1461632103
1201,0.1464767605
1200,0.1467367411
1199,0.146839723
1198,0.14711532
1197,0.1473918259
1196,0.1476940364
1195,0.1479916126
1194,0.1483394504
1193,0.1486492455
1192,0.1488703787
1191,0.1491347998
1190,0.1494743377
1189,0.149816826
1188,0.1501360238
1187,0.1504176706
1186,0.1507071704
1185,0.1510602683
1184,0.1513989717
1183,0.1516830921
1182,0.1520398855
1181,0.1522946656
1180,0.1526298821
1179,0.1529880464
1178,0.1532861739
1177,0.1536356211
1176,0.1539679021
1175,0.1542440057
1174,0.1545834243
1173,0.1549169868
1172,0.1552550495
1171,0.1555399746
1170,0.1558875591
1169,0.1562000215
1168,0.1565437615
1167,0.1568934917
1166,0.1572058201
1165,0.1574813873
1164,0.1578399539
1163,0.1581610739
1162,0.1584670842
1161,0.1588231474
1160,0.159139365
1159,0.1594776958
1158,0.1598330587
1157,0.1601739675
1156,0.1604997516
1155,0.1608149409
1154,0.1611738354
1153,0.1615319699
1152,0.1618587375
1151,0.1622623503
1150,0.1626063734
1149,0.1629584283
1148,0.1633941084
1147,0.1637589484
1146,0.1641224772
1145,0.1645251811
1144,0.1649622023
1143,0.1654186845
1142,0.1658122391
1141,0.1662389785
1140,0.1666729748
1139,0.1671451926
1138,0.1676429957
1137,0.1680865586
1136,0.1685286313
1135,0.169067353
1134,0.169530496
1133,0.1700945795
1132,0.1705996692
1131,0.1710972339
1130,0.1716001332
1129,0.1721296012
1128,0.1727184951
1127,0.17321904
1126,0.1737561077
1125,0.1743341833
1124,0.1748672575
1123,0.1754735708
1122,0.1760642976
1121,0.1765878052
1120,0.177153036
1119,0.1777593195
1118,0.1783001274
1117,0.178873688
1116,0.1794567853
1115,0.1799912453
1114,0.1805728972
1113,0.1811443716
1112,0.1817515641
1111,0.1822548062
1110,0.18282637
1109,0.1833212078
1108,0.1838548034
1107,0.1844115406
1106,0.1849541962
1105,0.1854185909
1104,0.1858640909
1103,0.1863540709
1102,0.186803475
1101,0.1872897297
1100,0.187684074
1099,0.1881447285
1098,0.1885634363
1097,0.1889225394
1096,0.1892733127
1095,0.1896063238
1094,0.1899269372
1093,0.1902533621
1092,0.1905420125
1091,0.1908663213
1090,0.1910820156
1089,0.1913398951
1088,0.1916325241
1087,0.1918509007
1086,0.1920631826
1085,0.1921928823
1084,0.192410171
1083,0.1925950944
1082,0.1927974969
1081,0.193018347
1080,0.1930832416
1079,0.1932532191
1078,0.1934716851
1077,0.1935741007
1076,0.1937953234
1075,0.1939381957
1074,0.1941107363
1073,0.1943463683
1072,0.1944827437
1071,0.194720462
1070,0.1949104816
1069,0.1950945705
1068,0.1953191459
1067,0.1955290735
1066,0.1958119869
1065,0.1960607767
1064,0.1963070184
1063,0.196588695
1062,0.1968662739
1061,0.1971202195
1060,0.1974738836
1059,0.1977945119
1058,0.1980789453
1057,0.1984454393
1056,0.1988289505
1055,0.1991525143
1054,0.1995241791
1053,0.1998929232
1052,0.2002669871
1051,0.2006585151
1050,0.2011099458
1049,0.2014229745
1048,0.2017818093
1047,0.2022123486
1046,0.202564761
1045,0.2029508948
1044,0.2033301294
1043,0.2036497295
1042,0.2039844841
1041,0.2044217288
1040,0.2046888471
1039,0.2049426883
1038,0.205266729
1037,0.2056004107
1036,0.2058932483
1035,0.206112802
1034,0.2063271254
1033,0.2065631002
1032,0.206722945
1031,0.2069272399
1030,0.2070703804
1029,0.207153827
1028,0.2072442174
1027,0.2073227316
1026,0.2074508518
1025,0.2075404674
1024,0.207442373
1023,0.2074505985
1022,0.207420215
1021,0.2074279338
1020,0.2073534429
1019,0.2072625756
1018,0.2071002722
1017,0.2070706785
1016,0.2069519311
1015,0.2068310082
1014,0.2066701204
1013,0.2064571977
1012,0.2063526064
1011,0.2061671019
1010,0.2059455663
1009,0.2057058066
1008,0.2055146843
1007,0.2053281069
1006,0.2050468177
1005,0.2049162984
1004,0.2046632171
1003,0.2043373138
1002,0.2040921897
1001,0.2038480788
1000,0.2035353482
999,0.203287214
998,0.2030181438
997,0.2027022988
996,0.2023712099
995,0.2021103352
994,0.2017425448
993,0.2014112473
992,0.2010331601
991,0.2006881833
990,0.2003504485
989,0.1999556869
988,0.1995954067
987,0.1993046552
986,0.1989605874
985,0.1985155642
984,0.1981320977
983,0.1977676898
982,0.197337091
981,0.1970556676
980,0.1966721416
979,0.1963092536
978,0.1959760934
977,0.1955569386
976,0.1952843666
975,0.1949937344
974,0.194679454
973,0.1943040937
972,0.1939385235
971,0.1935291588
970,0.193329215
969,0.1930493116
968,0.1926545501
967,0.1924190819
966,0.1921377182
965,0.1918294877
964,0.1915615052
963,0.1912718117
962,0.1909670085
961,0.1907195151
960,0.1904275715
959,0.1902128011
958,0.1899096966
957,0.1895968318
956,0.1892549694
955,0.1889537424
954,0.1887443364
953,0.1883846521
952,0.1879775673
951,0.1877424717
950,0.187407881
949,0.1870430559
948,0.1867571175
947,0.1862998456
946,0.1859718412
945,0.185712412
944,0.1853278279
943,0.1848560423
942,0.1844410598
941,0.1840989292
940,0.1838225424
939,0.1834499389
938,0.1829498112
937,0.1825685352
936,0.1822841763
935,0.1818498075
934,0.1815829575
933,0.1810437888
932,0.1806761324
931,0.180387184
930,0.1798953116
929,0.1795672625
928,0.1791116744
927,0.1787471324
926,0.1783573031
925,0.1780908704
924,0.1775313169
923,0.1772434264
922,0.1767929792
921,0.1763794571
920,0.1758965254
919,0.1755107492
918,0.1752583832
917,0.1747717857
916,0.174185276
915,0.1740624756
914,0.1735777259
913,0.1732592285
912,0.17284666
911,0.1722918004
910,0.1720169485
909,0.1715830714
908,0.1712418497
907,0.1708431989
906,0.1705641299
905,0.1701234281
904,0.1698703021
903,0.16955176
902,0.169213891
901,0.1688061059
900,0.1683011502
899,0.1660687774
898,0.1661697924
897,0.1633245349
896,0.1719948351
895,0.1704561412
894,0.1639910936
893,0.1668199301
892,0.1709007472
891,0.1647648364
890,0.1646132469
889,0.1664633006
888,0.1631844044
887,0.1619848609
886,0.1698381156
885,0.1666888297
884,0.1690704823
883,0.1677018404
882,0.1670457721
881,0.1618886441
880,0.1664763987
879,0.1633248031
878,0.1618035734
877,0.1665869653
876,0.167047441
875,0.1628018618
874,0.1668568403
873,0.1616486609
872,0.1654284298
871,0.1636418253
870,0.1601897627
869,0.1632205993
868,0.1634441465
867,0.1597904712
866,0.1616643965
865,0.1598682255
864,0.1615335196
863,0.1629082114
862,0.1611258835
861,0.16188474
860,0.1599928439
859,0.1614374816
858,0.160965845
857,0.1622411013
856,0.1606070846
855,0.1596822441
854,0.1610734165
853,0.1610189527
852,0.160425961
851,0.1602859795
850,0.1608941555
849,0.1608294398
848,0.1604291797
847,0.1598732024
846,0.159434095
845,0.159979105
844,0.1600304097
843,0.1599361598
842,0.1595703959
841,0.1598158926
840,0.1597357541
839,0.1588662863
838,0.159464106
837,0.1594885439
836,0.1594029665
835,0.1595290154
834,0.1593617499
833,0.1598454416
832,0.1601439118
831,0.1600155532
830,0.1600534618
829,0.1600821912
828,0.1601221263
827,0.1603746563
826,0.1608202904
825,0.1605222672
824,0.1606503576
823,0.1604253948
822,0.1607563496
821,0.1606794745
820,0.1616003215
819,0.1611897051
818,0.1613060981
817,0.1612315029
816,0.1621571332
815,0.161978215
814,0.1622901112
813,0.16210711
812,0.162418738
811,0.1630577147
810,0.1634103507
809,0.16346021
808,0.1634156704
807,0.1636414379
806,0.163895607
805,0.1641536057
804,0.1643762887
803,0.1646703184
802,0.1648351401
801,0.1652584225
800,0.1653680354
799,0.1655487716
798,0.1657997966
797,0.1667636484
796,0.1663479358
795,0.1667807549
794,0.1672375947
793,0.1670199782
792,0.167484045
791,0.1677054912
790,0.1677821726
789,0.1682855934
788,0.1682979465
787,0.1687389761
786,0.1684078872
785,0.1687942594
784,0.1692044139
783,0.1694995165
782,0.1696572304
781,0.1702754647
780,0.1704495549
779,0.1705105752
778,0.1709486693
777,0.1712915003
776,0.1714043021
775,0.1717372835
774,0.172189042
773,0.1724183857
772,0.1728311628
771,0.1732115895
770,0.1737030894
769,0.1742500812
768,0.1746433973
767,0.1751759648
766,0.175088793
765,0.175985992
764,0.1767157167
763,0.1771102995
762,0.1773015261
761,0.1780299544
760,0.1789136678
759,0.1793160588
758,0.1798004955
757,0.1801407039
756,0.1808778793
755,0.1815513372
754,0.1820108145
753,0.1824418306
752,0.1826813072
751,0.1831271648
750,0.1839952022
749,0.1842847466
748,0.1843235642
747,0.1848337501
746,0.1852638125
745,0.1854289472
744,0.185894832
743,0.1859006733
742,0.1859382391
741,0.1863368601
740,0.1868449152
739,0.186859563
738,0.1866768152
737,0.1869086027
736,0.1872334331
735,0.187045604
734,0.1870953441
733,0.186964497
732,0.1874558777
731,0.1875772625
730,0.1872528344
729,0.1875108331
728,0.187472254
727,0.1877060086
726,0.1878007054
725,0.1879251003
724,0.1881182194
723,0.1879793257
722,0.1882870793
721,0.1884847134
720,0.1885951161
719,0.1886465997
718,0.1889275759
717,0.1888296157
716,0.1889443398
715,0.1892528534
714,0.1895629466
713,0.189818874
712,0.1900226325
711,0.1903295517
710,0.1903979182
709,0.1905510873
708,0.1906891614
707,0.1908843517
706,0.1909013093
705,0.1911479384
704,0.1910560578
703,0.1913398951
702,0.1913492233
701,0.1912586242
700,0.1914721876
699,0.1913820803
698,0.1912772357
697,0.1911183149
696,0.1911334693
695,0.1910812557
694,0.1908230186
693,0.190800637
692,0.1906659007
691,0.1904946417
690,0.1902162135
689,0.190146625
688,0.189813301
687,0.1896465421
686,0.189511925
685,0.1897146553
684,0.1891941875
683,0.1891109943
682,0.1888378412
681,0.1886582673
680,0.1885108054
679,0.1885297894
678,0.1881601065
677,0.1881093234
676,0.187921986
675,0.1877379566
674,0.1875383854
673,0.1872682571
672,0.1872108877
671,0.1869259924
670,0.1866296381
669,0.1865177453
668,0.1863257587
667,0.1860516518
666,0.1859528571
665,0.1856931597
664,0.1857475191
663,0.1855078936
662,0.185345009
661,0.1852626204
660,0.1850232035
659,0.1850041002
658,0.1848121583
657,0.1845971644
656,0.1845995486
655,0.1845220178
654,0.1843548566
653,0.1843102574
652,0.1841074377
651,0.1839615852
650,0.1839887947
649,0.183696121
648,0.1834652573
647,0.1835391223
646,0.1833259016
645,0.1832619458
644,0.1831315458
643,0.1830955595
642,0.182853967
641,0.1825645417
640,0.1824502349
639,0.182478562
638,0.1821716726
637,0.1821239889
636,0.1819992363
635,0.181796968
634,0.1817037761
633,0.1816660613
632,0.1813394278
631,0.1813174188
630,0.1811501086
629,0.1810597628
628,0.1810047776
627,0.1809222102
626,0.180738613
625,0.1807084233
624,0.1807032079
623,0.1806663573
622,0.1805328876
621,0.1805845499
620,0.1803291887
619,0.1802528054
618,0.1803177297
617,0.1803915352
616,0.180228278
615,0.1804085076
614,0.1803142875
613,0.1803593785
612,0.1803812236
611,0.1804967225
610,0.1805216372
609,0.1805871427
608,0.180952087
607,0.1807723194
606,0.1811553389
605,0.1812320203
604,0.1815476865
603,0.1816764772
602,0.1818964779
601,0.1823254973
600,0.1824312806
599,0.182715714
598,0.1829968393
597,0.1832091808
596,0.183495909
595,0.1837427467
594,0.1841614246
593,0.1842666119
592,0.1845479459
591,0.1845176667
590,0.1847597808
589,0.1850982308
588,0.1851614714
587,0.1852766275
586,0.1853774488
585,0.1854527444
584,0.1855206788
583,0.1857050806
582,0.1857724041
581,0.1857626736
580,0.1856597364
579,0.1859726757
578,0.1861167401
577,0.1862815619
576,0.1862396151
575,0.1864946336
574,0.1868770719
573,0.1872318387
572,0.1873958856
571,0.1876918226
570,0.1883553714
569,0.1883875579
568,0.1890626252
567,0.1893740594
566,0.1902338564
565,0.1905711591
564,0.190818876
563,0.1916381568
562,0.1919678003
561,0.1924751997
560,0.1929010898
559,0.1931311637
558,0.1937582791
557,0.1939451545
556,0.1940881163
555,0.1942547709
554,0.1947347373
553,0.1947578788
552,0.1946073174
551,0.194322601
550,0.1942574084
549,0.1943564862
548,0.1942618191
547,0.1939462423
546,0.193582803
545,0.193518281
544,0.1935312599
543,0.1933045238
542,0.1933446079
541,0.1934056878
540,0.1932763308
539,0.1933937371
538,0.1937205493
537,0.1939024776
536,0.1939778477
535,0.1945447177
534,0.1949571073
533,0.1950969547
532,0.1956034005
531,0.1962570697
530,0.1966148317
529,0.1969691217
528,0.1973112077
527,0.1977877319
526,0.1982956827
525,0.1983229071
524,0.1990156025
523,0.1989867836
522,0.1993961632
521,0.1993934661
520,0.1996507049
519,0.1997418404
518,0.1994454563
517,0.1994934827
516,0.1997227371
515,0.1997601688
514,0.1996774375
513,0.1995859444
512,0.1999763101
511,0.2001119554
510,0.2000902146
509,0.2005274147
508,0.2008115947
507,0.2009616792
506,0.201207146
505,0.2016683668
504,0.2019758821
503,0.2027191818
502,0.2032914758
501,0.2035049498
500,0.2043291479
499,0.2051184177
498,0.2054677755
497,0.2060520053
496,0.2064644843
495,0.2069646418
494,0.2074682564
493,0.2077388465
492,0.2078496963
491,0.2078457773
490,0.2081073523
489,0.2077440172
488,0.2075615078
487,0.2073528171
486,0.2068522573
485,0.206349194
484,0.2064063996
483,0.2059925199
482,0.2054135948
481,0.2055199891
480,0.2055856138
479,0.2055414766
478,0.2056390196
477,0.2059273124
476,0.2061949819
475,0.2066664994
474,0.2071096152
473,0.2077685446
472,0.2083473504
471,0.209015727
470,0.2096056491
469,0.20984824
468,0.2107447982
467,0.2107886225
466,0.2110970914
465,0.2110079229
464,0.2110306025
463,0.2106581777
462,0.2104343772
461,0.2102195174
460,0.2095896304
459,0.2093084157
458,0.2090889961
457,0.2088117152
456,0.2085873932
455,0.2084639668
454,0.2084279954
453,0.2086341083
452,0.2088846415
451,0.2090316564
450,0.2092480659
449,0.2097216845
448,0.2101280093
447,0.2107908428
446,0.2112197578
445,0.2116295099
444,0.2121943831
443,0.2124409974
442,0.2129013836
441,0.2133067548
440,0.2136817575
439,0.213829428
438,0.213937059
437,0.2140705287
436,0.2145981491
435,0.2144352943
434,0.2150056958
433,0.2151134163
432,0.2154044062
431,0.21582672
430,0.2161537409
429,0.2163202316
428,0.2172928452
427,0.2174542546
426,0.2178036124
425,0.2184972912
424,0.2191507518
423,0.2192130089
422,0.2199865729
421,0.2201243192
420,0.2205251753
419,0.2207600027
418,0.2205557972
417,0.2208727598
416,0.2210837901
415,0.2210447192
414,0.2213873863
413,0.221516788
412,0.2217901051
411,0.2219537199
410,0.2222797275
409,0.2227843553
408,0.2238399982
407,0.2239413857
406,0.2248027623
405,0.2252547145
404,0.2263863534
403,0.226647228
402,0.227320835
401,0.2278848141
400,0.2285856009
399,0.2294920385
398,0.2294679731
397,0.2300597131
396,0.2300331593
395,0.2306382656
394,0.2305735052
393,0.231122762
392,0.2315332443
391,0.2316292077
390,0.2320941091
389,0.2326195538
388,0.2330608964
387,0.2333403379
386,0.2340374291
385,0.2341690511
384,0.2350081056
383,0.235984087
382,0.2368234545
381,0.237604484
380,0.2381326705
379,0.2389899194
378,0.2400306463
377,0.2407976836
376,0.2414853722
375,0.242161721
374,0.2430031002
373,0.2440412343
372,0.2448031604
371,0.2459701896
370,0.2463576198
369,0.2471167743
368,0.2473069876
367,0.2481855005
366,0.248342678
365,0.2493026555
364,0.2495921552
363,0.249901861
362,0.250444442
361,0.2511370182
360,0.252112478
359,0.2528571188
358,0.2544394135
357,0.2553609908
356,0.2569362223
355,0.2580222487
354,0.2589539886
353,0.259290278
352,0.260474503
351,0.2622563839
350,0.2624678016
349,0.2610172927
348,0.2621154785
347,0.2629149854
346,0.2633319795
345,0.2641434371
344,0.2656831741
343,0.2660012543
342,0.2662227154
341,0.2679032981
340,0.2692848146
339,0.2701611519
338,0.2714119256
337,0.2723956406
336,0.2744138539
335,0.2759751678
334,0.2762737274
333,0.2773282826
332,0.2792692482
331,0.2799384594
330,0.2805722058
329,0.282342732
328,0.2833064198
327,0.2848234177
326,0.2852907181
325,0.2872893214
324,0.287660867
323,0.290165633
322,0.2917113006
321,0.2943335772
320,0.2954505086
319,0.2967085838
318,0.2990026474
317,0.3008802831
316,0.3022729158
315,0.3042793572
314,0.306158334
313,0.3086440265
312,0.3099806309
311,0.3110234141
310,0.3149186969
309,0.3160201013
308,0.3177880049
307,0.3205825984
306,0.3224149048
305,0.3254616559
304,0.3275876641
303,0.3297656476
302,0.3323701918
301,0.3340380192
300,0.3366929889
299,0.3392922878
298,0.341404289
297,0.3441529572
296,0.3462077975
295,0.349414587
294,0.3522560596
293,0.354786545
292,0.3577088416
291,0.3599791527
290,0.3628009558
289,0.3655981421
288,0.3681257665
287,0.3709860742
286,0.3737767935
285,0.376116395
284,0.3786402643
283,0.38019979
282,0.3834372461
281,0.3846689463
280,0.3867412508
279,0.3883758485
278,0.3898952007
277,0.3925958276
276,0.3932078183
275,0.3944085538
274,0.3950617313
273,0.3961877823
272,0.396841526
271,0.3968283534
270,0.397354573
269,0.3967910111
268,0.3971419334
267,0.3965025842
266,0.3957698345
265,0.3956106901
264,0.3949604928
263,0.3937955201
262,0.3928925991
261,0.3914022148
260,0.3899594545
259,0.3888795078
258,0.3871899843
257,0.3849992752
256,0.3841910362
255,0.3822391331
254,0.3799845278
253,0.3773961961
252,0.3754532933
251,0.3725116253
250,0.3695946932
249,0.3671011627
248,0.3640319407
247,0.3604720533
246,0.3567708135
245,0.3531862199
244,0.3486969471
243,0.3448057175
242,0.3410151303
241,0.3377567828
240,0.3337433338
239,0.3299015462
238,0.3262405396
237,0.3238431811
236,0.3203335106
235,0.3178352118
234,0.3151982129
233,0.3128795028
232,0.3098741472
231,0.3082522154
230,0.3062240481
229,0.3053658009
228,0.3038766384
227,0.3029954731
226,0.3026019335
225,0.3033429086
224,0.3055962324
223,0.3089292049
222,0.3149469495
221,0.3214779198
220,0.3325099051
219,0.3448621929
218,0.3607628644
217,0.3785071671
216,0.3981790245
215,0.4212482274
214,0.4437747896
213,0.4676707685
212,0.4916070104
211,0.5136820078
210,0.53417629
209,0.5504037142
208,0.5633733273
207,0.5732838511
206,0.5792685151
205,0.5822085142
204,0.5818633437
203,0.5779187083
202,0.5723133087
201,0.5636410117
200,0.5526080728
