Dodecane_KIT_Air_B
Wavelength (nm),Abs
2655,0.08550342172
2654,0.08340062201
2653,0.0799511224
2652,0.08526650071
2651,0.08376129717
2650,0.08454234898
2649,0.0854016915
2648,0.08417735249
2647,0.0832682699
2646,0.08395185322
2645,0.08509062976
2644,0.08524920791
2643,0.0835025385
2642,0.08169131726
2641,0.08502347022
2640,0.08472736925
2639,0.08447502553
2638,0.08404709399
2637,0.08453253657
2636,0.08356955647
2635,0.08361559361
2634,0.08401564509
2633,0.08314935118
2632,0.08191254735
2631,0.08035292476
2630,0.08418743312
2629,0.084172979
2628,0.08491382748
2627,0.08358252048
2626,0.08492135257
2625,0.08357596397
2624,0.08373639733
2623,0.08402331173
2622,0.08318534493
2621,0.08228325099
2620,0.08594273031
2619,0.08610155433
2618,0.08094396442
2617,0.08754770458
2616,0.08474351466
2615,0.08435680717
2614,0.08406993002
2613,0.08607561141
2612,0.08375071734
2611,0.08440446854
2610,0.0861447379
2609,0.08571654558
2608,0.08351854235
2607,0.08221964538
2606,0.08027742803
2605,0.0839292109
2604,0.08452080935
2603,0.08251494914
2602,0.08194433898
2601,0.08467983454
2600,0.0840498209
2599,0.08354897797
2598,0.08412795514
2597,0.08341570944
2596,0.08148403466
2595,0.08635778725
2594,0.08574672043
2593,0.08725928515
2592,0.08502028883
2591,0.08324682713
2590,0.08382625133
2589,0.08418055624
2588,0.08706460148
2587,0.08563440293
2586,0.08332882822
2585,0.0822499916
2584,0.08473973721
2583,0.08339886367
2582,0.0838958323
2581,0.08628004789
2580,0.08495515585
2579,0.08376101404
2578,0.08495874703
2577,0.08323839307
2576,0.08372999728
2575,0.08266673237
2574,0.08268260956
2573,0.08369653672
2572,0.08418347687
2571,0.08272954822
2570,0.08201812208
2569,0.08425905555
2568,0.08413298428
2567,0.08445184678
2566,0.08419032395
2565,0.08306635171
2564,0.08394406736
2563,0.08374086022
2562,0.08258845657
2561,0.08474722505
2560,0.08499274403
2559,0.08391021192
2558,0.08443125337
2557,0.08432003111
2556,0.08439085633
2555,0.08365601301
2554,0.08347292244
2553,0.08402956277
2552,0.08507186174
2551,0.08562431484
2550,0.08468411118
2549,0.08383975178
2548,0.08540204167
2547,0.0850591436
2546,0.084054254
2545,0.08439742774
2544,0.08470267802
2543,0.08506185561
2542,0.08486730605
2541,0.08413647115
2540,0.08440738916
2539,0.08476802707
2538,0.08429988474
2537,0.08423165232
2536,0.08499541879
2535,0.08439387381
2534,0.08436897397
2533,0.08474417031
2532,0.085004583
2531,0.08485343307
2530,0.08491228521
2529,0.08438686281
2528,0.0842840448
2527,0.08425151557
2526,0.08440142125
2525,0.08430182934
2524,0.08385403454
2523,0.08443845809
2522,0.08439777046
2521,0.08478120714
2520,0.08460707963
2519,0.08422552049
2518,0.08453688025
2517,0.08454996347
2516,0.08460368216
2515,0.08473999053
2514,0.08473435789
2513,0.08450332284
2512,0.08469656855
2511,0.08474936336
2510,0.08503165841
2509,0.08463805914
2508,0.0848037377
2507,0.08474498987
2506,0.08480647951
2505,0.08478187025
2504,0.08449996263
2503,0.08482985944
2502,0.08520712703
2501,0.08510996401
2500,0.08500839025
2499,0.0847889781
2498,0.08483996242
2497,0.08517757803
2496,0.08518186212
2495,0.08542854339
2494,0.08511966467
2493,0.08518920094
2492,0.08522838354
2491,0.0850918591
2490,0.08510373533
2489,0.08531885594
2488,0.08539924026
2487,0.0852708444
2486,0.0853697136
2485,0.08539416641
2484,0.08549176157
2483,0.08561400324
2482,0.08560300618
2481,0.08555927873
2480,0.0855031386
2479,0.08559947461
2478,0.08561309427
2477,0.08593462408
2476,0.08570698649
2475,0.0857604444
2474,0.08582469076
2473,0.08602770418
2472,0.08611238003
2471,0.08597545326
2470,0.08610948175
2469,0.0859073028
2468,0.08603007346
2467,0.08639022708
2466,0.08615875244
2465,0.08603221923
2464,0.08654242009
2463,0.08651164919
2462,0.0863128528
2461,0.08656832576
2460,0.08647736907
2459,0.08635529876
2458,0.08645295352
2457,0.08660627902
2456,0.08624878526
2455,0.08670936525
2454,0.08682025224
2453,0.08668515086
2452,0.08692332357
2451,0.08713654429
2450,0.08683065325
2449,0.08686100692
2448,0.08705504984
2447,0.08674520254
2446,0.08718703687
2445,0.08708978444
2444,0.08708051592
2443,0.08723687381
2442,0.08739987761
2441,0.08716565371
2440,0.08732830733
2439,0.08757735044
2438,0.08755172789
2437,0.08752069622
2436,0.08740705997
2435,0.08766049147
2434,0.08769970387
2433,0.0877623409
2432,0.0878623426
2431,0.08796100318
2430,0.08801800013
2429,0.08800341934
2428,0.08802722394
2427,0.08808717877
2426,0.08817793429
2425,0.08836904913
2424,0.08825985342
2423,0.0883153677
2422,0.0884295553
2421,0.08831654489
2420,0.08833485097
2419,0.08869411796
2418,0.08844465762
2417,0.08842340112
2416,0.08883864433
2415,0.08874949813
2414,0.08883134276
2413,0.08893918246
2412,0.08893988281
2411,0.08897584677
2410,0.08928839862
2409,0.08913072944
2408,0.08901098371
2407,0.08943353593
2406,0.089370884
2405,0.0893458873
2404,0.0895972997
2403,0.08967309445
2402,0.08951769769
2401,0.08966363966
2400,0.08974648267
2399,0.08984799683
2398,0.08986403793
2397,0.09000360221
2396,0.09002198279
2395,0.09014878422
2394,0.09028127044
2393,0.09016678482
2392,0.09025344998
2391,0.09043852985
2390,0.09032926708
2389,0.09046830982
2388,0.09059090912
2387,0.09075979888
2386,0.09068974853
2385,0.09078394622
2384,0.09098260105
2383,0.09093086421
2382,0.09101314843
2381,0.09097653627
2380,0.09119196981
2379,0.09109129757
2378,0.09123195708
2377,0.09142623842
2376,0.09130375832
2375,0.09148462117
2374,0.0918097347
2373,0.09170763195
2372,0.09169510007
2371,0.09191627055
2370,0.09194947779
2369,0.09192490578
2368,0.09226904064
2367,0.09224970639
2366,0.09197420627
2365,0.09235158563
2364,0.09257660806
2363,0.09249716997
2362,0.09268743545
2361,0.09291484952
2360,0.09290257096
2359,0.09289542586
2358,0.09323965758
2357,0.09328371286
2356,0.09310799837
2355,0.0931769684
2354,0.09339218587
2353,0.09359835833
2352,0.09348995984
2351,0.09363184869
2350,0.09381256253
2349,0.09380825609
2348,0.0939110741
2347,0.0943319276
2346,0.09426618367
2345,0.09413926303
2344,0.09436746687
2343,0.09473340958
2342,0.09444474429
2341,0.09449123591
2340,0.09476429224
2339,0.09494489431
2338,0.09470823407
2337,0.09501360357
2336,0.09529887885
2335,0.09520633519
2334,0.09515029192
2333,0.09551053494
2332,0.09565012157
2331,0.09551344067
2330,0.09573085606
2329,0.09610844404
2328,0.09597400576
2327,0.09587495774
2326,0.09630469978
2325,0.09643851966
2324,0.09628282487
2323,0.09637604654
2322,0.09657898545
2321,0.0967688188
2320,0.09672398865
2319,0.09673382342
2318,0.0971667394
2317,0.09717836231
2316,0.09729966521
2315,0.09756120294
2314,0.09765464067
2313,0.09771019965
2312,0.09775876254
2311,0.09785973281
2310,0.09806489199
2309,0.09800318629
2308,0.09806057811
2307,0.09835337847
2306,0.0985417515
2305,0.09833548963
2304,0.09871047735
2303,0.09893964231
2302,0.09914251417
2301,0.09893492609
2300,0.099166058
2299,0.09940700978
2298,0.09949652106
2297,0.09900800884
2296,0.09950742126
2295,0.09978622198
2294,0.1000274196
2293,0.09961977601
2292,0.09999594092
2291,0.10026481
2290,0.1004176363
2289,0.1005641893
2288,0.1004044265
2287,0.1008226424
2286,0.1007014886
2285,0.1010435745
2284,0.1013299599
2283,0.1012570113
2282,0.1014509946
2281,0.101491183
2280,0.1015664935
2279,0.1015895531
2278,0.1021919623
2277,0.1016014293
2276,0.1020279303
2275,0.1021028459
2274,0.1021293104
2273,0.1026998684
2272,0.1025465652
2271,0.1027013436
2270,0.1029101163
2269,0.1031882539
2268,0.103384316
2267,0.1035836861
2266,0.1034293771
2265,0.1041342542
2264,0.1038333178
2263,0.1038425937
2262,0.1043582261
2261,0.1047794744
2260,0.1046297178
2259,0.1047425121
2258,0.1050662622
2257,0.1053290218
2256,0.1051711217
2255,0.1051463187
2254,0.1054595187
2253,0.1061733514
2252,0.1060425714
2251,0.1061184853
2250,0.1059480757
2249,0.1065047234
2248,0.1069338545
2247,0.1067511737
2246,0.1071516871
2245,0.1074168384
2244,0.1075160354
2243,0.1077470034
2242,0.1076429188
2241,0.1077961773
2240,0.1083174273
2239,0.1085337028
2238,0.1086787954
2237,0.1090041995
2236,0.1089653447
2235,0.1092644259
2234,0.1096525118
2233,0.1095971987
2232,0.1097000241
2231,0.1098865867
2230,0.1104148254
2229,0.1104886681
2228,0.1105238274
2227,0.1107070595
2226,0.1109237596
2225,0.111161232
2224,0.1113571525
2223,0.1115087494
2222,0.1115829721
2221,0.1119873747
2220,0.1121695861
2219,0.11253649
2218,0.1123410463
2217,0.1124413386
2216,0.1126580015
2215,0.1131539494
2214,0.1132689789
2213,0.1132975072
2212,0.113400273
2211,0.1139026582
2210,0.1142515019
2209,0.114349708
2208,0.1145021245
2207,0.1144912019
2206,0.1149424687
2205,0.1153624356
2204,0.1155742705
2203,0.1156953201
2202,0.1155529246
2201,0.1161562577
2200,0.1161842644
2199,0.1163388789
2198,0.1167917997
2197,0.1168610379
2196,0.1169624478
2195,0.1173778251
2194,0.1177360862
2193,0.1182464734
2192,0.1182299256
2191,0.1182564721
2190,0.1187117025
2189,0.1187384427
2188,0.1190753207
2187,0.1194645017
2186,0.1194164157
2185,0.1196270734
2184,0.1197927371
2183,0.119896166
2182,0.1203278154
2181,0.1206062287
2180,0.1208320931
2179,0.1208536029
2178,0.1213042364
2177,0.1216211915
2176,0.121718891
2175,0.1219620332
2174,0.1222331226
2173,0.1222662255
2172,0.122660026
2171,0.1229291186
2170,0.1232005432
2169,0.1236424372
2168,0.1236992925
2167,0.1238622516
2166,0.1242196709
2165,0.1245303452
2164,0.1248089448
2163,0.1249734238
2162,0.1249301806
2161,0.1253497601
2160,0.1255178601
2159,0.1258483827
2158,0.1261782348
2157,0.1267112941
2156,0.1267186701
2155,0.1268181503
2154,0.1271133125
2153,0.1272948682
2152,0.1277863234
2151,0.1280644536
2150,0.1281185448
2149,0.1285645366
2148,0.1287928075
2147,0.1289249063
2146,0.129469201
2145,0.1296923012
2144,0.1300982684
2143,0.1301525235
2142,0.1305076778
2141,0.1308322549
2140,0.1309182346
2139,0.1312179714
2138,0.1317560375
2137,0.1319829077
2136,0.1320259124
2135,0.1325514913
2134,0.1326892674
2133,0.1329759955
2132,0.1333104968
2131,0.1336547583
2130,0.1340132505
2129,0.1341883391
2128,0.1344690472
2127,0.1347916573
2126,0.1349602789
2125,0.135217309
2124,0.1357021481
2123,0.1360452324
2122,0.1362621635
2121,0.1365274787
2120,0.1369766593
2119,0.1370936334
2118,0.1374374181
2117,0.137779206
2116,0.1380379945
2115,0.1383357942
2114,0.1388417929
2113,0.139184013
2112,0.1393378973
2111,0.1395854056
2110,0.1399886161
2109,0.1401093751
2108,0.1407042444
2107,0.141001761
2106,0.1414092779
2105,0.1417197287
2104,0.142060712
2103,0.1423189938
2102,0.1426263154
2101,0.1430148929
2100,0.1432109624
2099,0.1435309649
2098,0.144026503
2097,0.1445201188
2096,0.1449056566
2095,0.1453513652
2094,0.1455499381
2093,0.1458278745
2092,0.1461457908
2091,0.146495983
2090,0.1467596889
2089,0.1470104605
2088,0.1473837942
2087,0.147958681
2086,0.1483418494
2085,0.1486952156
2084,0.1491334438
2083,0.1494016349
2082,0.149786815
2081,0.1501749307
2080,0.150590688
2079,0.1509661078
2078,0.1513370872
2077,0.1516115963
2076,0.1518707126
2075,0.1523403972
2074,0.1528299004
2073,0.1532097012
2072,0.1536666304
2071,0.1539955437
2070,0.1542524546
2069,0.1548981965
2068,0.1551606804
2067,0.1556441188
2066,0.1559362262
2065,0.1562842578
2064,0.1567870826
2063,0.1571990103
2062,0.157705754
2061,0.1580053717
2060,0.1584654003
2059,0.1587528437
2058,0.1591547132
2057,0.1596094221
2056,0.1598213613
2055,0.1603659242
2054,0.1606673449
2053,0.1612039655
2052,0.1615952551
2051,0.1619050652
2050,0.1625191718
2049,0.1628613621
2048,0.1633810252
2047,0.1635700613
2046,0.1641059071
2045,0.1645270437
2044,0.1649181992
2043,0.1654716581
2042,0.1659145951
2041,0.1663983613
2040,0.1665602177
2039,0.1671820879
2038,0.1675208509
2037,0.167871967
2036,0.1683856398
2035,0.1686738133
2034,0.1690246761
2033,0.1696139574
2032,0.1700359136
2031,0.1704750359
2030,0.1709683537
2029,0.1714309603
2028,0.1716353446
2027,0.1720212996
2026,0.1726772338
2025,0.173071444
2024,0.1736152768
2023,0.1736989617
2022,0.1742539853
2021,0.1747741848
2020,0.1753298938
2019,0.1756881922
2018,0.1760869324
2017,0.1764246821
2016,0.1769882292
2015,0.1774219275
2014,0.1778913587
2013,0.1782877892
2012,0.178588748
2011,0.1789699942
2010,0.1794270873
2009,0.1797652394
2008,0.1803575009
2007,0.1807246804
2006,0.1811094135
2005,0.1815468967
2004,0.1820012778
2003,0.1825447977
2002,0.1828105152
2001,0.183114931
2000,0.1835433394
1999,0.1839996278
1998,0.184425354
1997,0.1848933697
1996,0.1853414327
1995,0.18568784
1994,0.1860619038
1993,0.1865299046
1992,0.1869167238
1991,0.187405616
1990,0.1876939684
1989,0.1881435812
1988,0.1885190755
1987,0.1888765544
1986,0.1892840713
1985,0.1896730661
1984,0.190149188
1983,0.1904112846
1982,0.1908835173
1981,0.1913195848
1980,0.1916413456
1979,0.1921161562
1978,0.1924336702
1977,0.1928315014
1976,0.1932041496
1975,0.1935311407
1974,0.1939296126
1973,0.1942391843
1972,0.1946945637
1971,0.1950226873
1970,0.1953250319
1969,0.1957346797
1968,0.1960410625
1967,0.1963858604
1966,0.1968986541
1965,0.1971291006
1964,0.1975833327
1963,0.1979379356
1962,0.1982446164
1961,0.1987724006
1960,0.1991693377
1959,0.1995265484
1958,0.1997979432
1957,0.2001050711
1956,0.2005508244
1955,0.2008783072
1954,0.2012667656
1953,0.2015099227
1952,0.201953873
1951,0.2022680193
1950,0.2027047724
1949,0.2030391246
1948,0.2033288479
1947,0.2036435306
1946,0.204050079
1945,0.2045363486
1944,0.2049005777
1943,0.2049838156
1942,0.205474332
1941,0.2059747279
1940,0.2061593235
1939,0.2066361606
1938,0.206964016
1937,0.2073423862
1936,0.2077033818
1935,0.2081635445
1934,0.2085416168
1933,0.2088031322
1932,0.2091624886
1931,0.2095662206
1930,0.2099123299
1929,0.210378781
1928,0.2108078301
1927,0.2109609693
1926,0.211261481
1925,0.211439997
1924,0.2121221423
1923,0.2126125246
1922,0.2124325037
1921,0.2132298499
1920,0.2141872048
1919,0.2142341286
1918,0.2141843587
1917,0.2147126794
1916,0.2150253654
1915,0.2152581662
1914,0.2158571035
1913,0.2164511085
1912,0.2166131884
1911,0.2171895802
1910,0.2174590677
1909,0.2176280171
1908,0.2179064751
1907,0.2181622982
1906,0.2189163268
1905,0.2194020748
1904,0.2195990831
1903,0.2201574445
1902,0.220174551
1901,0.220205158
1900,0.2210662961
1899,0.2215086818
1898,0.2218481749
1897,0.2220047712
1896,0.2223019749
1895,0.2225731015
1894,0.2231031209
1893,0.2235535979
1892,0.223878786
1891,0.2242373973
1890,0.2247050852
1889,0.2248772234
1888,0.2250037193
1887,0.2254654318
1886,0.2255901396
1885,0.2259736508
1884,0.2265449762
1883,0.2266756147
1882,0.2269153148
1881,0.2273270488
1880,0.2276211381
1879,0.2277363092
1878,0.2279173583
1877,0.2283530682
1876,0.2287352979
1875,0.2286877036
1874,0.2290025502
1873,0.2295678258
1872,0.2296195626
1871,0.22985439
1870,0.2304760963
1869,0.2302469611
1868,0.2311066389
1867,0.2314373553
1866,0.2311732769
1865,0.2312427014
1864,0.2318742275
1863,0.2319691181
1862,0.2319276929
1861,0.2320562899
1860,0.232706815
1859,0.2328157425
1858,0.2324584275
1857,0.2329614758
1856,0.2331415266
1855,0.2328872085
1854,0.233375296
1853,0.2339088619
1852,0.2336432785
1851,0.233715415
1850,0.2337346971
1849,0.2337152362
1848,0.2342813164
1847,0.2347235978
1846,0.2344993055
1845,0.23430866
1844,0.2342039794
1843,0.2341393083
1842,0.2348494679
1841,0.2348276377
1840,0.2347267419
1839,0.2347747982
1838,0.2345376909
1837,0.234841913
1836,0.2348849028
1835,0.2348714322
1834,0.2347131521
1833,0.2346191704
1832,0.23456119
1831,0.2346875519
1830,0.2346304059
1829,0.2346560061
1828,0.2342794538
1827,0.2340805084
1826,0.2344333082
1825,0.2341100276
1824,0.2341341674
1823,0.2340641022
1822,0.2338298261
1821,0.2339750975
1820,0.2336624712
1819,0.2334962189
1818,0.2332535684
1817,0.2330977321
1816,0.2328986228
1815,0.2328392416
1814,0.2325517088
1813,0.2325451672
1812,0.2323893756
1811,0.2322264612
1810,0.2319838554
1809,0.2318288833
1808,0.2315369099
1807,0.2312736064
1806,0.2310826629
1805,0.2308639437
1804,0.2305097282
1803,0.230207637
1802,0.2300186902
1801,0.2299131453
1800,0.2296146899
1799,0.2293984741
1798,0.2291165888
1797,0.2288637012
1796,0.2286440134
1795,0.228321895
1794,0.2280349284
1793,0.2277717888
1792,0.2273967862
1791,0.2271721065
1790,0.2266580909
1789,0.2264670134
1788,0.2262553126
1787,0.2259018272
1786,0.2255205214
1785,0.2253453434
1784,0.2250463516
1783,0.2246347815
1782,0.2244638652
1781,0.2240704596
1780,0.2237274945
1779,0.223491326
1778,0.2230399102
1777,0.2226283848
1776,0.222283408
1775,0.2219400704
1774,0.2215197235
1773,0.2213345468
1772,0.2210520953
1771,0.2207199782
1770,0.220233947
1769,0.2199375182
1768,0.2195052654
1767,0.2193036824
1766,0.2189428955
1765,0.218575567
1764,0.2182938606
1763,0.2178933471
1762,0.2175575793
1761,0.2171400636
1760,0.2167822719
1759,0.2165152431
1758,0.2161069065
1757,0.215921402
1756,0.2154582739
1755,0.2149860859
1754,0.2146945149
1753,0.214250192
1752,0.213866353
1751,0.2135523856
1750,0.2132738829
1749,0.2128971517
1748,0.2124949098
1747,0.2122650594
1746,0.2117589414
1745,0.2114677131
1744,0.211178124
1743,0.2107516527
1742,0.2103742808
1741,0.2099898607
1740,0.2095676512
1739,0.2092945874
1738,0.2088766545
1737,0.2085662186
1736,0.208188206
1735,0.2078572959
1734,0.207391426
1733,0.2069873661
1732,0.2067443728
1731,0.2063542306
1730,0.2059211135
1729,0.2054917067
1728,0.2051354796
1727,0.2047245204
1726,0.2045360208
1725,0.2040046901
1724,0.2035960704
1723,0.2031352371
1722,0.2028542459
1721,0.2024924308
1720,0.2021013945
1719,0.2016446143
1718,0.2011691779
1717,0.2008131593
1716,0.2004830092
1715,0.1999391913
1714,0.1995125413
1713,0.1990588307
1712,0.1987469941
1711,0.1982985139
1710,0.1978809386
1709,0.1975345314
1708,0.1970883161
1707,0.1966802478
1706,0.1961960644
1705,0.1957624257
1704,0.1953590959
1703,0.194964692
1702,0.1944879144
1701,0.1941593885
1700,0.1937404424
1699,0.1932510436
1698,0.192750439
1697,0.1923989654
1696,0.1919522136
1695,0.1914559752
1694,0.1909528673
1693,0.1905958802
1692,0.1901081949
1691,0.1897104532
1690,0.1893728971
1689,0.1888363659
1688,0.1882875562
1687,0.1879835129
1686,0.1875431687
1685,0.1870872527
1684,0.1866911054
1683,0.1862614453
1682,0.1858057976
1681,0.1854767948
1680,0.1849596649
1679,0.1843913496
1678,0.1840896755
1677,0.1836078167
1676,0.1831823736
1675,0.1827511638
1674,0.1822998226
1673,0.1819491386
1672,0.1814133525
1671,0.1810032874
1670,0.1806803644
1669,0.1802624911
1668,0.1797183305
1667,0.1793851405
1666,0.1789774597
1665,0.178580001
1664,0.1780573726
1663,0.177683115
1662,0.1773028821
1661,0.1768866032
1660,0.1764168292
1659,0.176040113
1658,0.1756089926
1657,0.1751352102
1656,0.1747546047
1655,0.1743786633
1654,0.1739583313
1653,0.1734259576
1652,0.173051551
1651,0.1726986915
1650,0.1722833812
1649,0.1717595756
1648,0.1712800264
1647,0.1709293276
1646,0.1706010401
1645,0.1703163832
1644,0.1698480248
1643,0.1693588793
1642,0.1690177172
1641,0.1686765999
1640,0.1681176722
1639,0.1676980257
1638,0.1673355699
1637,0.1670012325
1636,0.1666341573
1635,0.1662362814
1634,0.1658090949
1633,0.1653814018
1632,0.1649146378
1631,0.1646562815
1630,0.1642408073
1629,0.1637945026
1628,0.1635185629
1627,0.1629222631
1626,0.162652567
1625,0.1623476595
1624,0.1620402038
1623,0.1616360396
1622,0.1612736732
1621,0.1609259844
1620,0.1605666131
1619,0.1602351367
1618,0.1597697139
1617,0.1594073325
1616,0.1591048539
1615,0.1586787999
1614,0.1583264619
1613,0.1579346508
1612,0.1576198339
1611,0.1573957205
1610,0.1569234431
1609,0.1566107273
1608,0.1562912315
1607,0.1560225785
1606,0.1556827277
1605,0.1553493291
1604,0.1551066935
1603,0.1547529697
1602,0.1544380486
1601,0.1542154998
1600,0.1538259983
1599,0.153660953
1598,0.1532008946
1597,0.1528301984
1596,0.1526816785
1595,0.1523315758
1594,0.1521138102
1593,0.1518621147
1592,0.1516185701
1591,0.1513951123
1590,0.1511434317
1589,0.1509138197
1588,0.1506471783
1587,0.1502670944
1586,0.1500660479
1585,0.1498591453
1584,0.1496552378
1583,0.1493785977
1582,0.1492253393
1581,0.1490301192
1580,0.1487280279
1579,0.1485554725
1578,0.1482819766
1577,0.1480884105
1576,0.1478841603
1575,0.1477196068
1574,0.1474721879
1573,0.1472849399
1572,0.1470620036
1571,0.1468373537
1570,0.1466815919
1569,0.1465670764
1568,0.1463712007
1567,0.1461727172
1566,0.1460240632
1565,0.1457742751
1564,0.14562352
1563,0.1454482228
1562,0.145273596
1561,0.1451632231
1560,0.1449335217
1559,0.1447792649
1558,0.1445870697
1557,0.1444586068
1556,0.1443065703
1555,0.1441940963
1554,0.1440568715
1553,0.1438868493
1552,0.1437340379
1551,0.1435867697
1550,0.1434777528
1549,0.1433340162
1548,0.1432441175
1547,0.1431698501
1546,0.1429583281
1545,0.1429032534
1544,0.1427437812
1543,0.1426326483
1542,0.1424377412
1541,0.1422682703
1540,0.1422035843
1539,0.142115742
1538,0.1418710053
1537,0.1418103874
1536,0.1418142021
1535,0.1416827738
1534,0.1416077465
1533,0.1415407956
1532,0.1414391398
1531,0.1412286013
1530,0.1411413848
1529,0.1410178095
1528,0.1409754753
1527,0.1407872736
1526,0.1406188905
1525,0.1405857503
1524,0.1405429244
1523,0.1405279338
1522,0.1404260844
1521,0.1403784454
1520,0.1402717084
1519,0.1401067376
1518,0.1401187778
1517,0.1400665641
1516,0.1399904042
1515,0.139920488
1514,0.1398839056
1513,0.1398307532
1512,0.1396223903
1511,0.1395045072
1510,0.1393918544
1509,0.1393416822
1508,0.139298901
1507,0.1392858475
1506,0.1393083632
1505,0.1392221451
1504,0.1391193569
1503,0.1391272694
1502,0.1390734315
1501,0.1389674395
1500,0.1388042271
1499,0.1387335807
1498,0.1387318969
1497,0.1386562735
1496,0.1385359168
1495,0.1384349316
1494,0.1385081708
1493,0.1385138035
1492,0.138476342
1491,0.1384197623
1490,0.1383426189
1489,0.1383439451
1488,0.1382986605
1487,0.1382039934
1486,0.1381641477
1485,0.1380310804
1484,0.1380072981
1483,0.1380564123
1482,0.1380478442
1481,0.1379784048
1480,0.1377672702
1479,0.1378051937
1478,0.1378565431
1477,0.1378696263
1476,0.1377775818
1475,0.1376921982
1474,0.1376488358
1473,0.1376741081
1472,0.1376585364
1471,0.1375446022
1470,0.137539342
1469,0.1374952942
1468,0.1374495029
1467,0.1374531984
1466,0.137349546
1465,0.137320742
1464,0.1373147517
1463,0.1372437328
1462,0.1372807622
1461,0.1371957213
1460,0.1371413022
1459,0.1371432245
1458,0.1370895505
1457,0.1370425224
1456,0.137012139
1455,0.1370152384
1454,0.1369811594
1453,0.1369190663
1452,0.1368886679
1451,0.1369366348
1450,0.1369154453
1449,0.1368795782
1448,0.1368766725
1447,0.1367686987
1446,0.136764586
1445,0.1367253512
1444,0.1366797239
1443,0.1366910636
1442,0.1366861016
1441,0.13660869
1440,0.1365741342
1439,0.1365223378
1438,0.1366095841
1437,0.1365823895
1436,0.1365489513
1435,0.1364969909
1434,0.1364734173
1433,0.1364095956
1432,0.1363936067
1431,0.1364005208
1430,0.1362665445
1429,0.1362370402
1428,0.1361742765
1427,0.1361441314
1426,0.1361609995
1425,0.1361338347
1424,0.1361259967
1423,0.1360909045
1422,0.1360174268
1421,0.1359982789
1420,0.1360012889
1419,0.1360178888
1418,0.1360206902
1417,0.1359232217
1416,0.1358956099
1415,0.1359499842
1414,0.1358566731
1413,0.1358527541
1412,0.1357459873
1411,0.1357424408
1410,0.1358759701
1409,0.1358501613
1408,0.1357689798
1407,0.1356743723
1406,0.1357724816
1405,0.1357868165
1404,0.1358290017
1403,0.1356104463
1402,0.1356221586
1401,0.1356481612
1400,0.1356375068
1399,0.1356256604
1398,0.1354840845
1397,0.1354660392
1396,0.1355586648
1395,0.1356419325
1394,0.1355144233
1393,0.1355044544
1392,0.1356225759
1391,0.1355983466
1390,0.1355226934
1389,0.1356118619
1388,0.1355535388
1387,0.1355063617
1386,0.1354423463
1385,0.1354202926
1384,0.1354216635
1383,0.1355383694
1382,0.1355229467
1381,0.1354993582
1380,0.1353168786
1379,0.135206461
1378,0.1351450384
1377,0.1350991875
1376,0.1350343525
1375,0.1349839121
1374,0.1350475997
1373,0.1349441409
1372,0.1350743473
1371,0.1351079047
1370,0.1350137293
1369,0.1349234134
1368,0.134935692
1367,0.1348412335
1366,0.1347525418
1365,0.1348434538
1364,0.1348526031
1363,0.1347495019
1362,0.1349895895
1361,0.1349715441
1360,0.134809494
1359,0.1347582191
1358,0.1347624213
1357,0.1346910745
1356,0.1347362995
1355,0.1346565187
1354,0.1346973628
1353,0.1346606612
1352,0.1345683634
1351,0.1345268041
1350,0.1345951855
1349,0.1345846355
1348,0.1346338689
1347,0.1346541643
1346,0.1346411705
1345,0.1346000135
1344,0.134596169
1343,0.134538725
1342,0.1345555931
1341,0.1344944388
1340,0.134461984
1339,0.1345148385
1338,0.1345291287
1337,0.1345639974
1336,0.1346118152
1335,0.1346116662
1334,0.1345202327
1333,0.1345657855
1332,0.1345882267
1331,0.1345714033
1330,0.134572491
1329,0.1345748901
1328,0.1346175969
1327,0.1346183717
1326,0.1346216202
1325,0.1346348524
1324,0.1346049607
1323,0.1346404254
1322,0.1346948594
1321,0.134723559
1320,0.134750247
1319,0.1347849816
1318,0.1348137259
1317,0.1347468942
1316,0.1348182112
1315,0.1348706484
1314,0.1348743588
1313,0.1349075884
1312,0.134872973
1311,0.1349672079
1310,0.1350586861
1309,0.1351118684
1308,0.1350406408
1307,0.1351214051
1306,0.1351393908
1305,0.1350965649
1304,0.1351885796
1303,0.1352611035
1302,0.1353162825
1301,0.1353981197
1300,0.1353567541
1299,0.1353623122
1298,0.1354890615
1297,0.1355261952
1296,0.1355955154
1295,0.1357142031
1294,0.135699451
1293,0.1357178837
1292,0.1358692795
1291,0.1358096749
1290,0.1359438598
1289,0.1360116601
1288,0.136006698
1287,0.1360978186
1286,0.1361734569
1285,0.1362697035
1284,0.1363714933
1283,0.1363873333
1282,0.1364452839
1281,0.1366102546
1280,0.1366663128
1279,0.1367049962
1278,0.1367888749
1277,0.1367977858
1276,0.1369079649
1275,0.1370192021
1274,0.1371637434
1273,0.1372018307
1272,0.1374156773
1271,0.1375229359
1270,0.1376163512
1269,0.1377475411
1268,0.1378153712
1267,0.1378906816
1266,0.1380299479
1265,0.1380718201
1264,0.1382504404
1263,0.1384162456
1262,0.1385423243
1261,0.1386559904
1260,0.138768822
1259,0.1389125437
1258,0.1390568167
1257,0.1391843706
1256,0.1393610537
1255,0.1394684017
1254,0.1395552009
1253,0.1395975053
1252,0.1397495717
1251,0.1398598254
1250,0.1400355101
1249,0.1402323097
1248,0.1404674351
1247,0.140581131
1246,0.1407645494
1245,0.1409535259
1244,0.1411009431
1243,0.1412161589
1242,0.141459614
1241,0.1416290849
1240,0.1417350471
1239,0.1418854594
1238,0.1420527995
1237,0.1421617866
1236,0.1424405724
1235,0.1425494701
1234,0.1427926868
1233,0.1429736912
1232,0.143091619
1231,0.1433363557
1230,0.1434424967
1229,0.1436997652
1228,0.1439788193
1227,0.1441571563
1226,0.1443027407
1225,0.1444824934
1224,0.1447639465
1223,0.1449940652
1222,0.1451493055
1221,0.1453382373
1220,0.1456036121
1219,0.145759657
1218,0.1459890306
1217,0.1462512165
1216,0.146457389
1215,0.1467358768
1214,0.1469350159
1213,0.1472093761
1212,0.1473977864
1211,0.1476315856
1210,0.1479034424
1209,0.1481694132
1208,0.1484981477
1207,0.1487649977
1206,0.1490427703
1205,0.1493827552
1204,0.1496382505
1203,0.1498343647
1202,0.1502037942
1201,0.1505184025
1200,0.1507364362
1199,0.1507681906
1198,0.1510281563
1197,0.1513164788
1196,0.1515862048
1195,0.1519043446
1194,0.1522488296
1193,0.152597025
1192,0.1528820246
1191,0.1531078964
1190,0.1534496099
1189,0.1538780481
1188,0.1542503834
1187,0.1545221955
1186,0.1547808796
1185,0.1550657898
1184,0.1554005891
1183,0.1557085067
1182,0.1560643166
1181,0.15639171
1180,0.1567630768
1179,0.1571273059
1178,0.1574858874
1177,0.1578111351
1176,0.1581313461
1175,0.1583617628
1174,0.158702448
1173,0.1590087563
1172,0.159381777
1171,0.1597067714
1170,0.1600873321
1169,0.1604095548
1168,0.1607493013
1167,0.1609835476
1166,0.1612768769
1165,0.1616451591
1164,0.1620046794
1163,0.1622677296
1162,0.1625782251
1161,0.1629988998
1160,0.1633781195
1159,0.163828209
1158,0.1641780138
1157,0.1645045429
1156,0.1647406667
1155,0.1650808007
1154,0.1654765457
1153,0.1658468544
1152,0.1661306173
1151,0.1664714962
1150,0.1668358296
1149,0.1672194004
1148,0.1676401049
1147,0.1680848449
1146,0.1684793681
1145,0.1688263416
1144,0.1693291813
1143,0.1697472632
1142,0.1701839864
1141,0.1706220508
1140,0.170981288
1139,0.1713894755
1138,0.1718496233
1137,0.172341466
1136,0.1728495806
1135,0.173423484
1134,0.1738952845
1133,0.1744311899
1132,0.1749683321
1131,0.1754471958
1130,0.1759326905
1129,0.1765057147
1128,0.1770884246
1127,0.1776324213
1126,0.1781314462
1125,0.1786512434
1124,0.1791806519
1123,0.1798349172
1122,0.180418238
1121,0.1809550673
1120,0.1815610975
1119,0.1821630895
1118,0.1827274263
1117,0.1832755357
1116,0.1838738173
1115,0.18443425
1114,0.18496494
1113,0.1855461895
1112,0.186124891
1111,0.1866845787
1110,0.1872677058
1109,0.187717706
1108,0.1882684231
1107,0.1888508052
1106,0.1893605292
1105,0.189806968
1104,0.1903074831
1103,0.1907505244
1102,0.1912094057
1101,0.1917410046
1100,0.1921357363
1099,0.1926305443
1098,0.192983672
1097,0.1933666617
1096,0.1937565804
1095,0.1940813959
1094,0.1943575889
1093,0.1946870685
1092,0.195044592
1091,0.1952905357
1090,0.1955237538
1089,0.1957453936
1088,0.1960408986
1087,0.196233198
1086,0.1964326948
1085,0.1965887696
1084,0.1967825741
1083,0.1969480217
1082,0.1971683204
1081,0.1973521858
1080,0.1975066364
1079,0.1977687925
1078,0.1978655457
1077,0.197982356
1076,0.1980789155
1075,0.1982514709
1074,0.1983833909
1073,0.1986335367
1072,0.1988262534
1071,0.1989565045
1070,0.1991291344
1069,0.1993325055
1068,0.1995269209
1067,0.1998134404
1066,0.2001543492
1065,0.2004113942
1064,0.2006338984
1063,0.2009138316
1062,0.2011917979
1061,0.2015338391
1060,0.2018768936
1059,0.2022161335
1058,0.2024942786
1057,0.202854827
1056,0.2031947076
1055,0.2035624534
1054,0.2038970441
1053,0.2042259872
1052,0.2044965029
1051,0.204916805
1050,0.2053396553
1049,0.205709517
1048,0.2061053514
1047,0.2065194994
1046,0.2068673074
1045,0.2072746754
1044,0.2076189965
1043,0.2080087215
1042,0.2083200514
1041,0.2086723596
1040,0.2089166343
1039,0.209147945
1038,0.2094144672
1037,0.2097552121
1036,0.210069716
1035,0.2103058845
1034,0.2105091512
1033,0.2107656151
1032,0.2109154463
1031,0.2111190259
1030,0.2112378627
1029,0.2113049775
1028,0.2113306224
1027,0.2114657015
1026,0.2114721388
1025,0.2115778029
1024,0.2115319967
1023,0.2115128785
1022,0.2114934176
1021,0.2115108073
1020,0.2114486843
1019,0.2113064975
1018,0.211215511
1017,0.2111607045
1016,0.2109886557
1015,0.2108332813
1014,0.210749805
1013,0.2105067074
1012,0.2102879435
1011,0.2101198137
1010,0.20986633
1009,0.2096595168
1008,0.2095104158
1007,0.2093468904
1006,0.2090818733
1005,0.208842352
1004,0.2085895687
1003,0.2082976699
1002,0.2080606222
1001,0.2077471465
1000,0.2075232714
999,0.2072642446
998,0.2069071978
997,0.2066163421
996,0.2062038928
995,0.2059157789
994,0.2055164278
993,0.2052283585
992,0.2048606277
991,0.2046083212
990,0.204298079
989,0.2038235366
988,0.2034257948
987,0.2030592561
986,0.2027224898
985,0.2023686916
984,0.2019473165
983,0.2014556974
982,0.2009924352
981,0.2006230056
980,0.2003320158
979,0.200020209
978,0.1996662468
977,0.1992245466
976,0.1989219934
975,0.1986310333
974,0.1982922554
973,0.197913155
972,0.1975848377
971,0.1972824931
970,0.1969098896
969,0.1966946125
968,0.1963636875
967,0.1961277872
966,0.1957820803
965,0.1953994334
964,0.1952359229
963,0.1949400306
962,0.1946706921
961,0.1944535375
960,0.194125846
959,0.1938827336
958,0.1934901178
957,0.1932184845
956,0.1929937601
955,0.1925783604
954,0.1923657805
953,0.1920215786
952,0.1915787309
951,0.1913098544
950,0.1910337955
949,0.1905821562
948,0.1902834028
947,0.1899122298
946,0.1895369589
945,0.1892285198
944,0.188874349
943,0.1884377003
942,0.18802993
941,0.1877135485
940,0.1874196827
939,0.1869952679
938,0.1865265369
937,0.1861339808
936,0.1856978089
935,0.185439378
934,0.1851008087
933,0.1847102344
932,0.1842954308
931,0.1839786321
930,0.1835376173
929,0.1830730587
928,0.1827266812
927,0.1824209988
926,0.1820337623
925,0.1816331744
924,0.1810912341
923,0.1806887239
922,0.1803055406
921,0.1798481941
920,0.1796368659
919,0.1791947633
918,0.1787837446
917,0.1783427
916,0.1778316647
915,0.1774016023
914,0.1771079302
913,0.176696077
912,0.1763412654
911,0.1757788658
910,0.1754140109
909,0.1752794385
908,0.1747795343
907,0.1744809747
906,0.1739227921
905,0.173710078
904,0.1733381599
903,0.1730503887
902,0.1727501601
901,0.1723232865
900,0.1720019877
899,0.174151957
898,0.1655577123
897,0.1688581407
896,0.1783968061
895,0.1713817567
894,0.1699800193
893,0.1655391008
892,0.167454049
891,0.1718214005
890,0.1695933044
889,0.1692032367
888,0.1725466549
887,0.1697833836
886,0.1698275954
885,0.1719043404
884,0.1669834107
883,0.1737181544
882,0.1699968278
881,0.1696501523
880,0.167258054
879,0.1668387949
878,0.1662891209
877,0.1720401049
876,0.1662750393
875,0.1652448624
874,0.1681190431
873,0.1680282801
872,0.1675239801
871,0.1671867669
870,0.1660137624
869,0.1648631692
868,0.1668621302
867,0.1636025459
866,0.1644390225
865,0.1668645293
864,0.1664666384
863,0.1658106446
862,0.1650749296
861,0.1650756449
860,0.1640213728
859,0.1650326103
858,0.1653859913
857,0.165122062
856,0.1650767475
855,0.1642302275
854,0.1647748649
853,0.1647226214
852,0.1644475013
851,0.1642815322
850,0.1652360708
849,0.1643222421
848,0.1644079238
847,0.1643515229
846,0.1632964462
845,0.1652128994
844,0.1650084257
843,0.1644861251
842,0.1642571241
841,0.1640565693
840,0.1645354331
839,0.1633690298
838,0.1641290188
837,0.1639995873
836,0.16390118
835,0.1636633575
834,0.1638348997
833,0.1643263996
832,0.1636466831
831,0.1640278399
830,0.1643987
829,0.164147079
828,0.1640449017
827,0.1643525511
826,0.1648127437
825,0.1641890407
824,0.1644349396
823,0.1649249643
822,0.1649790853
821,0.1646876037
820,0.1654286087
819,0.1653679907
818,0.1656951606
817,0.1654992402
816,0.1657517254
815,0.1660027504
814,0.166593805
813,0.166485399
812,0.1662884355
811,0.1668995023
810,0.1669866741
809,0.1671185195
808,0.1675695479
807,0.167613104
806,0.1683164537
805,0.1677488834
804,0.1684441268
803,0.1685363054
802,0.1687799096
801,0.1688882411
800,0.1690344959
799,0.169587031
798,0.1697544158
797,0.1705038995
796,0.1699952185
795,0.1707565933
794,0.1708767712
793,0.1709543914
792,0.1712456197
791,0.1713997722
790,0.1716847718
789,0.1721636951
788,0.1724075973
787,0.1728843451
786,0.1727874577
785,0.1730058491
784,0.1733186096
783,0.1734210104
782,0.1736952066
781,0.1740816534
780,0.1744969785
779,0.1744182706
778,0.1750731468
777,0.1753163636
776,0.1754067242
775,0.1754548848
774,0.1759408116
773,0.1767214686
772,0.177038312
771,0.1774787605
770,0.1778061688
769,0.1784274429
768,0.178827107
767,0.1793881506
766,0.1793735176
765,0.1799535155
764,0.1807128191
763,0.1811061502
762,0.1816186607
761,0.1820964217
760,0.1830297858
759,0.1835343838
758,0.1841713935
757,0.1843977273
756,0.1850635856
755,0.1856349707
754,0.1861848533
753,0.186284855
752,0.186743781
751,0.18769373
750,0.1880853772
749,0.1886061579
748,0.1888310164
747,0.189057976
746,0.1894321144
745,0.1896650195
744,0.1897441
743,0.1901262552
742,0.1904985756
741,0.1906055212
740,0.1911043227
739,0.1910475045
738,0.1909367144
737,0.191283226
736,0.1911826283
735,0.1913094521
734,0.1912740618
733,0.1911987513
732,0.1914583147
731,0.1915365905
730,0.1913275421
729,0.1916676164
728,0.191806823
727,0.1916903257
726,0.191770345
725,0.1919595152
724,0.1922452301
723,0.1920836866
722,0.1922223419
721,0.1925955713
720,0.19243294
719,0.1925533116
718,0.1930334121
717,0.1931019723
716,0.1931525767
715,0.1935056299
714,0.1937221587
713,0.1939762682
712,0.1941195726
711,0.1944300383
710,0.1945755929
709,0.1946900636
708,0.1949874014
707,0.1950628757
706,0.1951591969
705,0.1952381879
704,0.1952426881
703,0.1953550279
702,0.1954149008
701,0.1954485178
700,0.19541426
699,0.1955242008
698,0.1955344826
697,0.1952809989
696,0.1952002943
695,0.1951772869
694,0.1949311495
693,0.1948381811
692,0.1948130876
691,0.1945126355
690,0.194415614
689,0.1942979693
688,0.1940478981
687,0.193770498
686,0.1936452985
685,0.1937242746
684,0.1933082342
683,0.1933282018
682,0.1931592673
681,0.1927731633
680,0.1926336586
679,0.1927050203
678,0.1923213154
677,0.1921031028
676,0.1920072734
675,0.1918292046
674,0.1915140301
673,0.1915484667
672,0.1912240088
671,0.1910493523
670,0.1908589751
669,0.1906622946
668,0.1905706674
667,0.1902397573
666,0.1901905835
665,0.1898355484
664,0.1898857355
663,0.1895727217
662,0.1895094365
661,0.1892199218
660,0.1893240958
659,0.1890067756
658,0.1888944358
657,0.1886361241
656,0.1887451708
655,0.1886092275
654,0.1884155273
653,0.188407734
652,0.1881312728
651,0.1880951971
650,0.1881478876
649,0.1878693253
648,0.1877155453
647,0.1877932847
646,0.1874883175
645,0.1874375343
644,0.1872939914
643,0.1873226911
642,0.1870175749
641,0.1867144257
640,0.1865294278
639,0.1865870655
638,0.1864542216
637,0.1862727702
636,0.1861478537
635,0.1857941598
634,0.1857093573
633,0.185571909
632,0.1855291277
631,0.1854239404
630,0.1853885651
629,0.1852743626
628,0.185074091
627,0.18497096
626,0.1849622428
625,0.1849612147
624,0.1847532094
623,0.1846225113
622,0.184634462
621,0.1846590936
620,0.1844753027
619,0.184356004
618,0.1842853725
617,0.1843801141
616,0.1842633337
615,0.1844716221
614,0.1844731271
613,0.1843826026
612,0.1844863147
611,0.1847239286
610,0.1846443713
609,0.1849537641
608,0.1851146966
607,0.1849488169
606,0.1850833744
605,0.185326159
604,0.1855619103
603,0.1857531071
602,0.1860847473
601,0.1865621656
600,0.1865873486
599,0.1870703697
598,0.187256828
597,0.1875784099
596,0.1877973974
595,0.1880629361
594,0.188464269
593,0.1887277812
592,0.1888992637
591,0.1891088337
590,0.1892360002
589,0.1893626899
588,0.1895192564
587,0.1896594912
586,0.1897322834
585,0.1900169849
584,0.1900350153
583,0.1900094002
582,0.1899775267
581,0.1899568737
580,0.1899063289
579,0.1900657713
578,0.1902809143
577,0.1903723925
576,0.1906500459
575,0.1907410026
574,0.1909935623
573,0.1915302873
572,0.1917451471
571,0.1920647174
570,0.1926164776
569,0.1927845031
568,0.1932991892
567,0.193739593
566,0.194506675
565,0.1949162334
564,0.195316717
563,0.1958130151
562,0.1963935047
561,0.1969848126
560,0.1976126581
559,0.1980199665
558,0.1984114349
557,0.1987501532
556,0.1986851096
555,0.1990538836
554,0.1991414875
553,0.1993731856
552,0.1992012411
551,0.19891873
550,0.1989379227
549,0.1989336163
548,0.1986288279
547,0.1982754618
546,0.1979870945
545,0.1979944855
544,0.1977725178
543,0.197765246
542,0.1978185624
541,0.1977148801
540,0.1976784021
539,0.197758466
538,0.1981493682
537,0.1982923746
536,0.1985930055
535,0.1992169172
534,0.1995500326
533,0.1998529732
532,0.2000434399
531,0.200825274
530,0.201108411
529,0.2015357316
528,0.2019986659
527,0.202483356
526,0.20285739
525,0.2032567412
524,0.2036343366
523,0.2036599964
522,0.2037700266
521,0.203859672
520,0.2042090744
519,0.2041688114
518,0.2039959133
517,0.2041855156
516,0.2043439001
515,0.2043550909
514,0.2041717172
513,0.2042133063
512,0.2044865638
511,0.2045108974
510,0.2046638876
509,0.2051721811
508,0.2054082006
507,0.2056446671
506,0.205862686
505,0.2064569443
504,0.2066131234
503,0.2074916661
502,0.2080993801
501,0.208486855
500,0.2090620697
499,0.2096785605
498,0.210189864
497,0.2107460499
496,0.2113813311
495,0.2117327154
494,0.2121507078
493,0.2125326991
492,0.2124471515
491,0.2125265002
490,0.2126869857
489,0.2123956978
488,0.2121554315
487,0.2119302005
486,0.2112208158
485,0.2109937817
484,0.2107705772
483,0.2103872299
482,0.2100572884
481,0.2101017535
480,0.2101542503
479,0.2100631297
478,0.2101597935
477,0.2105400413
476,0.210830763
475,0.2112747878
474,0.2118685395
473,0.2124747336
472,0.2130800635
471,0.2138058245
470,0.21416682
469,0.2146641314
468,0.2151338011
467,0.2153354287
466,0.2157449424
465,0.2156763375
464,0.2154615372
463,0.2154072076
462,0.2151827812
461,0.2145397216
460,0.2141068429
459,0.2138824016
458,0.2134804726
457,0.2133428305
456,0.2131488621
455,0.21310848
454,0.2130164355
453,0.2132634819
452,0.2134674489
451,0.2137631029
450,0.2139607817
449,0.2143266052
448,0.214711532
447,0.2152620703
446,0.2156674415
445,0.216271922
444,0.2165434062
443,0.2173175961
442,0.2177678496
441,0.2180229872
440,0.2181043327
439,0.2185733765
438,0.2186333388
437,0.2189466655
436,0.2191297859
435,0.2193168849
434,0.2193943113
433,0.2198901325
432,0.2198584378
431,0.2203127444
430,0.2205819488
429,0.2207288891
428,0.2217617631
427,0.2222201824
426,0.2224150151
425,0.2227515429
424,0.2236825675
423,0.2241061032
422,0.2247845232
421,0.2248078436
420,0.2252890617
419,0.2254800051
418,0.2255372256
417,0.2254371196
416,0.2253797799
415,0.2255287766
414,0.2258629054
413,0.2258903384
412,0.2262440324
411,0.2266289443
410,0.2267030627
409,0.2274931073
408,0.2280565947
407,0.2284463644
406,0.2294514179
405,0.2299423814
404,0.2304581404
403,0.2314240783
402,0.2320007831
401,0.2323939204
400,0.2329657674
399,0.2338659614
398,0.2342114449
397,0.2345644385
396,0.2347450107
395,0.2352609187
394,0.2353508472
393,0.2355535328
392,0.2358252704
391,0.2362498194
390,0.2364082932
389,0.2373022139
388,0.2373411506
387,0.2381916642
386,0.2388860434
385,0.2391236871
384,0.2393714339
383,0.2405384481
382,0.2413353175
381,0.2420271039
380,0.242831558
379,0.2435205132
378,0.2442196161
377,0.2450161725
376,0.2460110635
375,0.2468240708
374,0.2476760149
373,0.2490038872
372,0.2495259345
371,0.2503078282
370,0.2512176931
369,0.2516466081
368,0.2521673143
367,0.2525431216
366,0.2527247071
365,0.2542354465
364,0.2544708252
363,0.2541607022
362,0.2548245192
361,0.2553256154
360,0.2568568289
359,0.2577773631
358,0.258942008
357,0.2603022754
356,0.2614933252
355,0.2624978423
354,0.2635520399
353,0.2643493116
352,0.2655766308
351,0.2662963569
350,0.2673781514
349,0.2658891082
348,0.2665261924
347,0.2679114938
346,0.2683809102
345,0.2691991627
344,0.270545572
343,0.2709454596
342,0.2721664608
341,0.2733719349
340,0.2750062943
339,0.2759518027
338,0.2765977383
337,0.2781512141
336,0.2805726528
335,0.2808277607
334,0.2816341817
333,0.2827676833
332,0.283985287
331,0.2845479548
330,0.286244452
329,0.2870565951
328,0.2886800766
327,0.2894430757
326,0.2908555865
325,0.2923743129
324,0.2935294509
323,0.2952286303
322,0.2973762751
321,0.2996278405
320,0.3011504412
319,0.302770555
318,0.3045875728
317,0.3062770665
316,0.3076961935
315,0.3095006645
314,0.3118944168
313,0.3136252463
312,0.3155317008
311,0.3172448575
310,0.3198052347
309,0.3214487433
308,0.3232969642
307,0.3262832761
306,0.3283322752
305,0.3311281502
304,0.3330998123
303,0.3353424668
302,0.3380793631
301,0.3403627574
300,0.3427329361
299,0.3446425498
298,0.3472868204
297,0.3498456478
296,0.352584213
295,0.355237335
294,0.3576999903
293,0.3604331315
292,0.3633410931
291,0.3662378788
290,0.3686945438
289,0.3711837232
288,0.3738503754
287,0.3772114515
286,0.3788153827
285,0.3818761706
284,0.3839372694
283,0.3857377172
282,0.3889560997
281,0.3904799223
280,0.3924275637
279,0.3940395117
278,0.3956380486
277,0.3976086974
276,0.3990352452
275,0.3998125196
274,0.4013676345
273,0.4011076987
272,0.4020740986
271,0.4025371969
270,0.4026238024
269,0.402520746
268,0.402212292
267,0.4019093812
266,0.4012440145
265,0.4008076787
264,0.400205195
263,0.3989384472
262,0.3981298506
261,0.3965037167
260,0.3959320486
259,0.3940453529
258,0.3927174807
257,0.3905894756
256,0.3886702955
255,0.3874080181
254,0.385669589
253,0.3830471337
252,0.380740732
251,0.3780174255
250,0.3754130602
249,0.3724061251
248,0.3689433038
247,0.3659402132
246,0.3621568084
245,0.3585595489
244,0.354632616
243,0.3503947854
242,0.3473067582
241,0.3434249163
240,0.3400897086
239,0.3366928101
238,0.3326644003
237,0.3299064934
236,0.3269287646
235,0.3247959316
234,0.3221580982
233,0.3190833032
232,0.3172087371
231,0.3153742552
230,0.3137095273
229,0.3126997948
228,0.3116970956
227,0.311834842
226,0.3111125827
225,0.3127733469
224,0.315120101
223,0.3197794557
222,0.3256272376
221,0.3334700167
220,0.3449447155
219,0.3578748107
218,0.3736824989
217,0.3919472694
216,0.4116176665
215,0.4345195293
214,0.456953913
213,0.4806844294
212,0.5031220913
211,0.5243577957
210,0.5451990366
209,0.5612750649
208,0.5738078356
207,0.5826488733
206,0.5903830528
205,0.5933133364
204,0.5925797224
203,0.5901889205
202,0.5840732455
201,0.5779690146
200,0.5679727793
